##TITLE=NDDataset_06ff6ed0
##JCAMP-DX=5.01
##DATA TYPE=LINK
##BLOCKS=4
##TITLE=MCT D317 1mm² [8500 - 700 Cm-1]
##JCAMP-DX=5.01
##ORIGIN=opus
##OWNER=Arnaud@DESKTOP-0U3PKHV
##LONGDATE=2020/02/06
##TIME=12:09:58
##XUNITS=1/CM
##YUNITS=ABSORBANCE
##FIRSTX=3998.3449384537757
##LASTX=699.3889538645833
##FIRSTY=0.000459045433672145
##LASTY=0.0
##MAXX=3998.3449384537757
##MINX=699.3889538645833
##MAXY=6.0
##MINY=-0.00024895163369365036
##XFACTOR=1.000000
##YFACTOR=1.000000E-08
##NPOINTS=2568
##XYDATA=(X++(Y..Y))
3998.3449384537757 45904 42188 45606 50823 51797 49755 48495 46337 37890 23743 
3986.778672828025 12266 9123 10459 7629 -1998 -13091 -19891 -22639 -24589 -24895 
3973.9272665771905 -18369 -2816 16352 29349 31356 25992 21938 24777 32579 38066 
3961.0758603263557 36219 28921 23207 23223 25935 25471 21107 18367 22156 30372 
3948.2244540755214 35294 31473 22368 16912 19828 26657 30165 26642 16155 2521 
3935.373047824687 -5653 421 19527 39038 47244 44098 38421 37683 42844 49747 
3922.521641573853 53500 51709 45870 40281 39001 43131 50113 56154 59327 59099 
3909.6702353230185 53738 40400 20843 4618 2342 14117 29180 37356 37351 33747 
3896.8188290721837 30468 27781 24520 20692 18722 21200 27509 33721 35312 30766 
3883.9674228213494 24111 22801 30017 39766 44044 41185 34151 24318 13276 6943 
3871.116016570515 11225 22902 32408 34229 31102 28219 26841 25844 26569 31916 
3858.2646103196807 40299 45075 41880 33470 25538 20716 19237 21169 26137 32910 
3845.4132040688464 39779 45287 49270 52777 55545 55203 51030 46088 44292 46925 
3832.5617978180117 52388 56709 56390 50693 40849 27473 11326 -3825 -11512 -7754 
3819.7103915671773 6137 24251 39983 49255 52227 50566 46516 44313 48327 58147 
3806.858985316343 68543 73290 69460 59397 49786 44396 40517 34605 27225 19693 
3794.0075790655087 11979 6676 8781 19004 30867 36395 33283 27807 31237 49351 
3781.1561728146744 76065 98857 110533 113482 115830 125297 144154 172114 209024 
3769.5899071889235 253522 298692 337408 371669 413688 471652 559675 701512 927552 
3758.023641563172 1275418 1804451 2613018 3843752 5677444 8264822 11640473 15739199 
3747.7425165625045 20502382 25919651 32000032 38760885 46188324 53969222 61404830 
3738.746532186921 67904394 73638099 79235297 84878230 90084725 94197416 96752202 
3729.7505478113367 97418171 95996809 92689156 88128513 82920169 77135497 70571208 
3720.7545634357525 62781488 54014682 45768156 40087023 38436147 41130542 47150778 
3711.7585790601684 54243421 60207164 64244198 66621166 67671442 67635500 66795802 
3702.762594684584 65391916 63538110 61253607 58580315 55667281 52685761 49660065 
3693.766610309 46459946 42991304 39366075 35880267 32761785 29980266 27352532 
3684.7706259334163 24772775 22285747 19997413 17959564 16142444 14458605 12850680 
3675.774641557832 11360100 10062779 8957929 7978479 7076925 6262728 5555948 
3666.778657182248 4957440 4460259 4059367 3751496 3539979 3429899 3420025 3498269 
3656.4975321815805 3655942 3911618 4324467 4982888 5969636 7334109 9093919 11253317 
3646.216407180913 13796393 16678272 19851695 23288030 26940229 30718117 34558519 
3637.220422805329 38492196 42556637 46674582 50690716 54459518 57819354 60581225 
3628.2244384297446 62630170 63832736 63855457 62320357 59216386 54974627 49951329 
3619.2284540541605 44056621 37131607 29968243 24332623 21868494 23163887 27521976 
3610.2324696785768 33305722 38784849 43165785 46617323 49430859 51562750 52874600 
3601.2364853029926 53449213 53488612 53031504 52030730 50598055 48906672 46911254 
3592.2405009274084 44444912 41543355 38427051 35211828 31883513 28526884 25395366 
3583.2445165518243 22738900 20666982 19174642 18212804 17677848 17378024 17093148 
3574.24853217624 16703271 16222335 15703108 15161553 14588600 13972717 13290582 
3565.252547800656 12530688 11727289 10934047 10167996 9409768 8651331 7914364 
3556.2565634250723 7227868 6606953 6051056 5551653 5101176 4695156 4326726 3986834 
3545.9754384244043 3671565 3381570 3114750 2866179 2631727 2406640 2184442 1961480 
3535.694313423737 1737538 1512601 1289845 1082994 915376 808971 771538 790145 
3525.4131884230696 838136 892127 941160 981506 1010649 1028837 1038144 1038229 
3515.132063422402 1025990 999205 957542 903100 841295 778640 717920 658762 600645 
3503.565797796651 543738 489042 438728 394855 358476 329853 307031 285321 262066 
3491.9995321709002 239935 222398 208813 197791 190123 186280 184921 185194 185407 
3480.4332665451493 180746 167837 150741 136202 125578 114470 99695 83373 71275 
3468.867000919398 68348 74644 85383 94892 99936 100512 98898 97212 95292 91214 
3456.0155946685636 83202 70736 55480 42766 39146 46881 61333 74947 82105 81378 
3443.1641884177293 74693 65395 56571 49651 44608 40390 36745 35382 38263 45308 
3430.312782166895 54972 65717 75375 80746 79939 74791 69199 66295 67096 70982 
3417.46137591606 76002 79324 78287 71903 61608 51439 45901 46982 51968 55221 
3404.609969665226 53629 49796 48493 50913 54656 57468 59251 60589 61924 63702 
3391.7585634143916 65390 65621 64682 65540 70689 78131 83220 84260 84620 88960 
3378.9071571635573 97565 105348 106189 98135 84436 71517 65413 69388 81651 95769 
3366.055750912723 105587 110437 113663 115794 113269 104959 95769 90848 89686 
3354.489485286972 88415 85660 83733 85274 90044 94558 95281 92664 91320 94633 
3341.6380790361372 100865 105167 105084 103023 103506 108693 116098 120495 117800 
3330.0718134103863 108610 99108 96363 101295 107411 108304 104780 102735 106067 
3318.5055477846354 113471 121448 127366 130557 132107 133045 132679 129057 122691 
3306.9392821588845 117725 118174 123475 129192 131676 130903 129194 129101 132455 
3295.3730165331335 138838 144661 145873 142040 137023 134943 137095 141188 143100 
3283.8067509073826 139820 132886 128257 130869 139479 147759 151133 150824 151167 
3272.2404852816317 154292 158441 160457 158285 152256 145323 142466 146754 155027 
3260.6742196558807 159597 156594 150640 148707 151393 152978 149557 143214 139152 
3249.10795403013 140155 144029 145590 141796 135802 134182 139482 147715 153619 
3237.541688404379 155726 155843 155194 153352 150562 149354 152458 159291 165321 
3225.975422778628 166096 160863 152422 145762 145437 151684 159189 161606 157745 
3214.409157152877 151375 145996 141874 138786 137841 140357 144777 147281 144702 
3202.8428915271256 137682 130137 125835 125497 127138 128358 128073 125944 121868 
3191.2766259013747 116440 111649 109155 108769 108693 107858 106296 103734 99957 
3179.7103602756238 96109 94825 97492 102440 105660 104274 99407 95979 98908 
3168.144094649873 108348 118434 121689 116178 107126 100312 95754 90031 82750 
3156.577829024122 76806 72644 67184 59296 52671 51351 55161 60809 65683 69103 
3143.7264227732876 71242 72243 71724 69616 66813 65250 66243 68968 71159 70920 
3130.875016522453 68177 64540 61569 58920 55104 49892 45508 44044 45070 46485 
3118.023610271619 47192 47314 46482 43554 38398 32939 28960 26225 23723 21993 
3105.172204020784 22687 25984 30266 33664 34812 32545 26916 20159 15782 15746 
3092.32079776995 19615 25303 30056 31146 27642 21324 15164 10570 7126 4478 3797 
3078.184250894032 6404 11445 15650 15990 12307 7080 3357 3147 6925 13095 17955 
3064.047704018114 17859 12240 4522 -988 -2588 -1610 -486 -771 -2252 -3013 -1025 
3049.9111571421963 3176 6528 6979 6241 7393 10710 13719 14855 15332 16645 18455 
3035.7746102662786 19084 17476 14470 12890 15842 24005 34151 41287 43113 42191 
3022.923204015444 43432 48895 55926 60537 61582 60931 60327 59757 58782 57590 
3010.0717977646095 57012 57551 58609 58723 57149 55078 54451 55789 57888 59480 
2997.220391513775 60042 59373 57421 54840 53373 54687 58860 64726 71773 80647 
2984.368985262941 91393 101903 109205 111566 108981 103070 96890 94083 96594 
2972.80271963719 103472 111680 117943 119867 116487 108940 100130 93048 88729 
2961.2364540114386 86288 84504 83287 83085 83980 85572 87209 88026 87598 86778 
2948.3850477606047 87261 90130 94786 99212 101171 99479 94903 89888 86890 86729 
2935.53364150977 88677 91644 95035 98135 99980 100639 101783 104630 107619 107770 
2922.6822352589356 104303 99238 94192 88420 81422 75505 74135 77665 82903 86516 
2909.8308290081013 87759 87746 88109 90550 95886 102442 106781 107313 106272 
2898.2645633823504 107206 111424 117289 122024 123646 121289 114743 104676 93305 
2886.6982977565995 82631 71646 57144 38545 20566 9110 5850 8079 13007 19628 
2873.8468915057647 27157 33343 35892 34941 33315 34074 37916 43300 48146 51017 
2860.995485254931 51725 51255 50960 50986 50175 47513 43305 38937 35763 34040 
2848.144079004096 32530 29934 27054 26416 28825 31366 30548 26572 22899 22063 
2835.2926727532617 23798 26802 30589 34685 37755 38600 37486 35628 33815 32146 
2822.4412665024274 30851 29911 28623 26230 23427 22096 23857 28906 35675 41496 
2809.5898602515927 43777 41605 36271 30040 24798 21480 20063 20004 20726 21801 
2796.7384540007583 22886 23863 25341 27818 30297 30584 27841 23622 20402 19136 
2783.887047749924 19260 20079 21288 22674 24034 25059 25282 24606 23922 24790 
2771.0356414990897 27813 32410 37457 41390 42414 39740 34612 29152 24919 22656 
2758.1842352482554 22516 23824 25251 25924 25836 25290 24808 25075 26383 28235 
2745.3328289974206 30108 31776 32672 32017 30048 28310 27890 28450 29286 30460 
2732.4814227465863 31910 32760 32229 31040 30304 29830 28864 27608 27043 27276 
2719.630016495752 27647 28074 28939 29797 29398 27059 23451 20322 19434 21555 
2706.7786102449177 26256 32462 38952 43981 45601 43261 38605 34201 31506 29988 
2693.9272039940834 28113 25424 23231 23086 24469 25246 24391 23394 24414 27750 
2681.0757977432486 31690 34372 35195 34587 33061 31444 30978 32447 35460 38716 
2668.2243914924143 41227 42634 43191 43279 42844 41351 38633 35783 34338 34457 
2655.37298524158 34799 33960 31903 29742 28717 29113 29776 29201 27388 26131 
2642.5215789907456 26937 29211 31087 31781 32480 34828 39211 44538 49138 51681 
2629.6701727399113 51647 49104 44795 40250 37382 36716 36449 34364 30727 28388 
2616.8187664890766 29263 32027 34017 34322 34084 34144 34149 33760 33771 35473 
2603.9673602382422 38900 42206 43336 42072 40222 39662 40543 41538 41268 39548 
2591.115953987408 37491 36115 35193 33804 31760 29672 28017 27028 26870 27240 
2578.264547736573 27473 27603 28579 30571 32278 32993 34068 37087 41419 44725 
2565.4131414857393 45409 43574 40110 36022 32504 30859 31636 33848 35408 34452 
2552.5617352349045 31136 27533 25828 26538 28916 32141 35299 37035 36496 34400 
2539.71032898407 32465 31957 33014 34745 35923 35747 34299 32164 30157 29338 
2526.858922733236 30354 32543 34242 34555 34084 34115 35561 38517 42103 45057 
2514.007516482401 46352 45479 42478 37993 33113 29258 27859 29626 33695 37944 
2501.1561102315673 40530 40851 39551 37861 36872 37019 38592 41686 45448 47920 
2488.3047039807325 48094 46754 44839 42028 38255 35265 35333 38714 43188 46148 
2475.453297729898 46783 45995 45007 44533 45145 47306 50538 53562 55698 57383 
2462.601891479064 59578 62432 64947 65776 65305 65976 69637 75473 81697 87393 
2449.750485228229 92332 96304 99785 104168 110170 116902 122644 126494 129189 
2438.184219602478 132354 136942 142466 148531 156035 166613 181110 198706 217535 
2426.617953976727 236622 256769 279044 303272 329420 359183 394416 435392 480652 
2415.0516883509763 528944 579359 631942 688223 750261 819226 896731 981159 1072136 
2403.4854227252254 1170679 1279377 1401659 1546714 1747743 2102695 2833982 4347547 
2393.2042977245583 7221464 12122631 19711455 30603876 45409536 64742964 89581668 
2384.208313348974 121503317 164533162 242734241 600000000 600000000 600000000 
2376.4974695984733 600000000 600000000 600000000 600000000 600000000 600000000 
2368.7866258479726 600000000 600000000 600000000 600000000 600000000 600000000 
2361.0757820974723 600000000 600000000 600000000 600000000 600000000 236741781 
2353.364938346971 203830981 187295413 177609980 171965050 169275987 169132530 
2345.6540945964707 170335209 172584986 175783073 179863309 184720420 190163409 
2337.94325084597 195975351 201883387 208317017 214713096 220637583 225211071 
2330.232407095469 227245187 226251912 222690320 217255902 213879394 209649705 
2322.521563344969 205180025 201394653 199401438 200111174 204432868 214086174 
2314.810719594468 213336253 213916730 216363596 221259093 228587818 238394117 
2307.0998758439673 252257418 272740745 262709808 245495939 225832843 208477425 
2299.389032093467 194329416 181206893 166253304 149331128 133128142 119192004 
2291.678188342966 107059133 95040470 82381159 70384752 61107027 55739408 54117053 
2282.682203967382 54893827 56216734 56730055 56174755 54932641 53364008 51687955 
2273.686219591798 50098532 48771250 47766771 46985492 46192365 45121198 43611860 
2264.690235216214 41687285 39530029 37389269 35453981 33753031 32148501 30435070 
2255.69425084063 28466126 26216480 23772878 21296557 18979595 16969843 15293127 
2246.698266465046 13847239 12492496 11155088 9844519 8596526 7431772 6359396 
2237.7022820894617 5390682 4537852 3806052 3188832 2669180 2227482 1849694 1527962 
2227.421157088794 1256487 1029921 843330 691282 568455 470744 393932 332662 
2217.1400320881266 282207 240141 205348 177541 156703 141523 129321 118442 108872 
2205.5737664623757 100442 92622 85790 80468 76539 73783 71999 70407 68366 66202 
2192.722360211541 64265 62409 60965 60239 59438 58119 57209 57193 57245 56815 
2179.870953960707 55778 53585 50525 48609 49027 50540 51776 52969 54677 56644 
2167.0195477098723 57828 56836 53560 50284 49402 50794 52702 53896 53912 53181 
2154.168141459038 53096 54257 55169 54643 53370 52100 50856 50175 50732 52199 
2141.3167352082037 54371 57170 58712 58344 63568 86905 129337 170105 181692 
2129.7504695824528 157184 118372 92620 87427 92207 97282 101451 106015 111618 
2118.184203956702 119018 126528 129978 128797 127403 128727 131040 130986 126050 
2106.617938330951 116531 107105 101900 99113 98711 114162 163489 241333 306987 
2095.0516727052 314553 260561 190989 152406 151497 170178 194083 223527 312530 
2083.485407079449 602186 1197057 1926009 2337808 2114040 1439564 795067 472910 
2073.204282078781 428600 492346 568531 640766 707245 764380 811553 846561 866182 
2061.63801645303 871097 863510 844864 816884 780156 733990 680284 622658 562290 
2050.071750827279 499821 438856 382482 330602 284033 246649 220462 201692 182929 
2038.5054852015282 158678 130500 105979 90436 81910 76008 71371 67928 64993 
2026.9392195757773 62728 61877 61455 59902 57424 55133 53518 52785 52844 52725 
2014.087813324943 51815 50405 48669 47003 46617 47754 48462 47329 45489 44513 
2001.2364070741085 44570 45339 46298 46415 45401 44279 43834 43870 44323 45383 
1988.3850008232741 46531 47140 47262 47029 46518 46280 47109 49198 52030 54394 
1975.5335945724396 54905 53267 50947 49815 50494 52668 55467 57613 58482 58743 
1962.6821883216053 59169 59596 59415 57994 54977 50898 47327 45407 44912 44974 
1949.830782070771 44816 43880 41960 39646 38364 39548 43810 54000 79685 130350 
1936.9793758199366 195643 239667 230540 175527 114847 81246 76591 85367 96322 
1925.4131101941853 107531 120568 135704 150557 161548 166784 167309 165339 162635 
1913.8468445684343 160018 157116 153167 148331 143271 137724 130690 121941 112251 
1902.2805789426834 102556 93670 86021 79381 73391 68032 63290 59070 55726 53803 
1889.429172691849 53168 53140 53189 52982 52124 50566 48848 47697 47601 48467 
1876.5777664410148 49369 49123 47265 44564 42351 41525 42059 43383 45090 47024 
1863.7263601901805 48721 49504 49177 48070 46396 44536 43466 43992 45609 46777 
1850.8749539393457 46207 43652 40183 37895 38444 41276 43992 44886 44305 43683 
1838.0235476885114 43683 43569 42414 40652 39926 40973 42543 43072 42792 43258 
1825.172141437677 45316 48109 50069 50180 48576 46324 44463 43064 41740 40755 
1812.3207351868427 40872 42012 42867 42175 40188 38170 37379 38278 40595 43352 
1799.4693289360084 44906 43831 40286 36444 34897 36514 39843 42989 44927 45510 
1786.6179226851737 44899 43380 41719 40763 40818 41240 41066 39714 37605 35975 
1773.7665164343393 35926 37369 39426 41413 42820 42841 41219 39209 38706 39846 
1760.915110183505 41030 41209 40843 40403 39457 37610 35737 35283 36610 38706 
1748.0637039326707 40281 40709 39929 38382 37341 38107 40035 40742 39146 36939 
1735.2122976818364 36214 36838 38110 40634 44417 47643 48628 47881 46858 45987 
1722.3608914310016 45282 45277 45979 46370 45824 45225 45482 45987 44989 41621 
1709.5094851801673 37299 34566 33804 32302 28240 24520 26119 33434 41854 47949 
1696.658078929333 52020 55050 56737 57232 58326 61146 64153 64488 61037 55913 
1683.8066726784987 52116 50719 50346 49156 47210 46383 47544 48806 48327 47446 
1670.9552664276644 49213 53583 56659 55698 52305 50081 50367 51735 52673 52782 
1658.1038601768296 52271 52082 53819 57665 60874 60742 57860 55687 56970 61050 
1645.2524539259953 65113 67067 66212 62479 56706 51154 48703 50045 52722 53769 
1632.401047675161 52297 49413 46407 43740 41895 42100 45049 49286 52144 52240 
1619.5496414243266 50711 49706 49954 50335 49726 48146 46386 45137 44722 45204 
1606.6982351734923 46363 47845 49511 51336 53002 53938 54078 54057 54565 55664 
1593.8468289226576 56851 57447 57183 56338 55477 54907 54557 54638 55729 58147 
1580.9954226718232 61180 63723 65408 66287 65509 61753 55571 50131 48400 50050 
1568.144016420989 52935 55866 58209 58417 55135 49688 45546 44380 45002 45977 
1555.2926101701546 47068 48617 50828 53163 54109 52217 47899 43621 42313 45720 
1542.4412039193203 53287 61180 64221 60260 52196 45515 43815 45969 47988 47239 
1529.5897976684855 43986 39807 35633 31934 29532 28745 28406 27515 26883 27680 
1516.7383914176512 29253 29810 28504 25971 23598 23487 27559 34820 41027 42844 
1503.8869851668169 40691 37278 34815 34040 34758 35866 35581 32828 28950 27051 
1491.0355789159826 29087 33786 37973 39566 38913 37877 37789 38190 37615 35328 
1478.1841726651478 31913 28512 26339 26530 29333 33094 35493 35820 35470 36032 
1465.3327664143135 37138 36942 34226 29931 26846 27266 30641 34271 36475 37545 
1452.4813601634792 38400 39460 40771 42222 43300 43520 43155 42507 40761 37203 
1439.6299539126449 33403 32431 34910 37970 39043 38724 39061 40330 40895 39833 
1426.7785476618105 37999 36281 34312 31864 30576 32410 36796 40867 42541 42108 
1413.9271414109758 41372 41654 42740 43616 43891 44101 44471 43940 41559 38382 
1401.0757351601414 36584 37193 39473 42362 45251 47358 47785 46503 44940 45031 
1388.2243289093071 47296 50201 51745 51445 50359 49605 49180 48327 46666 44639 
1375.3729226584728 43113 42468 42377 42385 42569 43225 44173 44798 44935 45230 
1362.5215164076385 46295 47674 48146 47254 45922 45474 46311 47783 49278 50564 
1349.6701101568037 51471 51665 50786 48612 45401 42237 40636 41157 42820 44217 
1336.8187039059694 44891 45251 45515 45360 44557 43385 42424 42064 42297 42839 
1323.967297655135 43295 43279 42665 41833 41470 42087 43484 44852 45622 45842 
1311.1158914043008 45857 45715 45370 45181 45637 46560 47073 46586 45541 44925 
1298.2644851534665 45207 46031 46775 47093 46873 45946 44375 42893 42499 43476 
1285.4130789026317 44922 45888 46407 47184 48537 50087 51307 51963 52155 52056 
1272.5616726517974 51774 51258 50289 48817 47226 46189 46047 46404 46586 46402 
1259.710266400963 46212 46212 46282 46316 46485 46951 47770 48711 49193 48700 
1246.8588601501287 47550 46904 47324 48050 48140 47682 47262 46899 46153 45036 
1234.0074538992944 44124 43857 44111 44417 44494 44300 43862 43160 42481 42453 
1221.1560476484597 43536 45386 47106 47829 47241 45795 44557 44367 45111 46065 
1208.3046413976253 46793 47353 47638 47182 45642 43082 40097 37654 36688 37457 
1195.453235146791 39486 41968 44062 45039 44557 43116 41870 42038 44007 46941 
1182.6018288959567 49091 49133 47290 44823 42655 40965 39903 39747 40193 40281 
1169.7504226451224 39403 37879 36522 35840 35986 36861 37965 38768 39431 40582 
1156.8990163942876 42256 43435 43175 41849 40647 40271 40333 40229 39973 39960 
1144.0476101434533 40222 40369 40330 40631 41789 43611 45137 45321 43976 42131 
1131.196203892619 41144 41287 41564 40745 38566 35864 34048 34149 35983 38162 
1118.3447976417847 39444 39869 40349 41520 43134 44414 44751 44183 43497 43370 
1105.4933913909504 43777 44396 45497 47731 51336 55928 61216 67474 75359 85453 
1092.6419851401156 97806 111904 126881 142045 157113 172099 186891 200953 213227 
1081.0757195143647 222585 227938 228120 222244 210504 194387 175703 155466 134325 
1069.5094538886137 113897 97144 87305 86127 92983 105333 119942 134159 146494 
1057.9431882628628 156685 164877 170830 173889 173915 171698 168221 163801 158173 
1046.3769226371119 151107 142469 132512 122242 113206 106111 100141 94013 87523 
1034.810657011361 81448 76534 72940 70371 68172 65424 61595 56877 51903 47456 
1021.9592507605266 44349 43181 43626 44437 44652 44349 43935 43271 42007 40623 
1009.1078445096919 40198 41157 42792 44222 45256 45837 45414 43629 41367 40198 
996.2564382588575 40994 43572 47632 53326 60765 69460 78837 88594 98607 108639 
983.4050320080232 118522 128187 137070 144006 148325 150611 151741 151240 147492 
971.8387663822723 139412 127626 113816 99482 85430 72766 63762 60846 64667 73394 
958.987360131438 84358 95780 106835 116918 125282 131248 134294 134403 132105 
947.421094505687 128483 124726 121598 118930 115651 110611 103698 96195 89730 
935.8548288799361 84965 81293 77784 73975 69751 65216 61084 58124 56208 54542 
923.0034226291014 52958 52155 52730 54407 56063 56240 54189 50815 47832 45920 
910.152016378267 44554 43603 43787 45502 47915 49869 50867 51183 51160 50667 
897.3006101274327 49330 47125 44632 42719 41906 42017 42421 42771 43240 43929 
884.4492038765984 44652 45448 46303 46459 45124 42849 41294 41253 41991 42258 
871.5977976257641 41356 39776 38781 39079 39890 39957 39144 38278 37955 37991 
858.7463913749293 38126 38512 39426 40618 41406 41517 41204 40377 39061 38089 
845.894985124095 38050 37923 36465 34296 32908 32579 32765 33242 34229 36473 
833.0435788732607 40341 44119 44484 40799 36589 35276 36548 38452 40789 44818 
820.1921726224264 50924 57530 62601 65551 67581 69694 71729 73049 72738 69919 
807.340766371592 65219 60848 58165 56716 54176 49027 52748 98252 210366 351980 
794.4893601207573 427227 371369 223954 84664 12771 -4716 -5280 -6579 -6828 -1501 
781.637953869923 9325 22112 33338 43222 56151 77063 107479 144505 185272 232640 
768.7865476190887 293766 373178 471555 592722 748346 952258 1204618 1483853 
758.5054226184211 1766797 2060390 2396326 2793120 3244417 3735980 4254636 4834403 
748.2242976177536 5648583 6943713 8696946 10349737 11159110 10977001 10397083 
739.2283132421694 10033596 9984996 10011402 9928170 9693437 9299036 8741077 
730.2323288665852 8027444 7288216 7190179 9163541 14630661 23165541 30359575 
721.2363444910011 30295690 24352672 18811883 16692443 17548869 19884863 22709850 
712.2403601154174 25722756 28866979 32242241 36126920 40750873 46105265 51913160 
703.2443757398332 57713490 63242495 0 
##END
##TITLE=MCT D317 1mm² [8500 - 700 Cm-1]
##JCAMP-DX=5.01
##ORIGIN=opus
##OWNER=Arnaud@DESKTOP-0U3PKHV
##LONGDATE=2020/02/06
##TIME=12:10:02
##XUNITS=1/CM
##YUNITS=ABSORBANCE
##FIRSTX=3998.3449384537757
##LASTX=699.3889538645833
##FIRSTY=0.000459045433672145
##LASTY=0.0
##MAXX=3998.3449384537757
##MINX=699.3889538645833
##MAXY=6.0
##MINY=-0.00024895163369365036
##XFACTOR=1.000000
##YFACTOR=1.000000E-08
##NPOINTS=2568
##XYDATA=(X++(Y..Y))
3998.3449384537757 45904 42287 37890 35429 39991 54995 76215 92005 92000 76731 
3986.778672828025 56144 40172 32973 33758 39786 47607 52707 49467 35289 16883 
3973.9272665771905 8543 19097 42647 63778 72956 72562 70124 69131 67778 63054 
3961.0758603263557 54474 44238 36682 34822 37524 40113 40434 42408 50727 62347 
3948.2244540755214 66583 56100 36667 23433 26269 40792 54277 58101 52769 44603 
3935.373047824687 39525 40849 48666 60431 72157 80071 82102 78469 70785 60579 
3922.521641573853 49159 38431 30926 28411 30667 36136 42686 49237 56325 64739 
3909.6702353230185 73547 78808 77701 72289 68221 68330 70412 71942 73630 77055 
3896.8188290721837 79993 76887 63814 44062 26986 19535 20804 25492 29540 32434 
3883.9674228213494 36685 45857 59871 72844 78305 75333 67462 57779 48928 44525 
3871.116016570515 46808 51678 52227 46194 38898 37138 41149 45445 47557 50729 
3858.2646103196807 56719 60716 55965 42504 27517 18180 16888 21726 29191 37558 
3845.4132040688464 47542 58982 68724 72761 69748 63254 59366 60537 63967 66933 
3832.5617978180117 69875 72722 72792 68976 63238 55939 44614 30025 19726 20654 
3819.7103915671773 31190 42313 46409 43841 41395 44069 51706 61520 71522 80489 
3806.858985316343 88013 92251 90493 82551 71887 61250 50869 42424 38444 35910 
3794.0075790655087 28831 18152 12660 18315 31719 43909 47557 43644 42427 53855 
3781.1561728146744 77595 104676 127003 141399 148648 153734 162775 181198 210184 
3769.5899071889235 246896 285638 323153 362420 411882 475609 567695 714554 946940 
3758.023641563172 1298448 1824335 2624109 3847774 5683663 8282993 11673133 15781237 
3747.7425165625045 20547080 25963479 32041168 38794407 46207460 53975582 61413252 
3738.746532186921 67927628 73667085 79254168 84900486 90154594 94340014 96938490 
3729.7505478113367 97598057 96146100 92813575 88240498 83026111 77233034 70649003 
3720.7545634357525 62829524 54038214 45782816 40104410 38460338 41164335 47202122 
3711.7585790601684 54322421 60311138 64347630 66691064 67691636 67622125 66790777 
3702.762594684584 65438526 63652741 61413854 58738458 55778491 52729547 49648103 
3693.766610309 46425673 42967456 39366388 35899829 32789576 30006888 27370154 
3684.7706259334163 24776905 22279979 19991359 17960214 16148744 14465670 12856809 
3675.774641557832 11366862 10070504 8966023 7989393 7094708 6286204 5576929 
3666.778657182248 4968101 4460595 4055791 3750289 3543212 3436754 3429792 3510885 
3656.4975321815805 3670633 3925454 4333690 4987087 5974353 7346554 9115225 11277679 
3646.216407180913 13817496 16694165 19862625 23293434 26939776 30715799 34563088 
3637.220422805329 38511624 42592024 46719262 50738108 54511171 57884472 60666614 
3628.2244384297446 62736010 63957625 63993579 62451684 59313899 55027931 49975317 
3619.2284540541605 44074052 37152227 29986992 24341990 21865230 23149080 27500292 
3610.2324696785768 33285996 38777738 43179249 46654582 49492520 51645791 52968055 
3601.2364853029926 53536754 53560364 53092437 52093821 50667273 48970678 46953597 
3592.2405009274084 44458875 41537451 38418143 35213905 31900346 28553459 25424870 
3583.2445165518243 22767552 20692987 19196055 18228146 17689338 17391803 17113576 
3574.24853217624 16727860 16243709 15716451 15169061 14598095 13992212 13323235 
3565.252547800656 12572130 11768323 10967136 10190991 9424296 8659840 7920101 
3556.2565634250723 7234983 6617745 6063174 5560237 5104120 4694611 4326014 3988185 
3545.9754384244043 3677439 3395322 3137205 2892559 2654401 2420897 2191387 1965431 
3535.694313423737 1741903 1518024 1295797 1090245 925764 822078 783118 795236 
3525.4131884230696 836532 889623 945792 998373 1038781 1061773 1068015 1060327 
3515.132063422402 1039897 1007049 962515 909324 852067 793206 731410 666902 
3504.8509384217346 604196 547138 495404 448211 407014 373526 347150 324835 302743 
3493.2846727959836 279865 258800 241958 228755 218617 212733 210017 205905 196993 
3481.7184071702322 183496 167465 151071 137417 128296 122507 116965 109879 101825 
3470.1521415444813 95505 93945 97692 104173 109796 111660 108444 101386 93564 
3458.5858759187304 87440 83474 80398 76257 70119 64363 63534 69435 78367 83705 
3445.734469667896 81254 72149 61711 54708 52357 53453 57206 63158 69787 74698 
3432.8830634170617 76238 75004 73474 74024 76355 77789 76319 72663 69818 70775 
3420.0316571662274 75849 82185 86895 89881 91341 88184 77068 60817 47433 42064 
3407.180250915393 42339 43098 43657 47622 56354 65343 69235 67887 65432 65017 
3394.3288446645583 66482 68703 70599 71322 70734 69886 70192 72209 76378 83510 
3381.477438413724 93616 104938 113959 117222 112854 101459 86454 73853 69341 
3369.911172787973 74120 83640 91613 95741 98893 105063 114307 122174 123947 
3358.344907162222 119760 114587 113305 115851 117741 115457 109560 103018 97445 
3346.7786415364712 92584 87844 83471 79747 76814 75606 78253 86669 99746 112874 
3333.927235285637 121027 122787 120336 116687 114675 116204 120830 124604 123062 
3322.360969659886 116285 109612 109010 115727 125412 131679 130617 123934 116531 
3310.794704034135 112075 110445 110723 114237 122844 134738 144346 146783 141531 
3299.228438408384 132458 125739 126658 135613 146588 151944 149684 144746 142905 
3287.6621727826328 145032 147297 146022 141162 135634 132847 134112 137921 141557 
3276.095907156882 144520 148297 153040 156332 156074 153128 149029 144048 138015 
3264.529641531131 132736 130461 131414 133458 134966 137350 143448 152679 159197 
3252.96337590538 157417 148323 138926 135075 136654 140217 143796 148011 153692 
3241.397110279629 159179 161278 158818 154347 151637 152198 154762 157095 158049 
3229.830844653878 157441 155212 151183 146053 141277 137791 136140 137085 140832 
3218.264579028127 145440 148047 148499 149653 153053 156285 156285 153502 150694 
3206.6983134023762 148263 144289 138368 132827 129804 129272 130999 135361 141991 
3195.132047776625 148115 149406 143307 131238 118247 109277 106218 106861 107668 
3183.565782150874 106597 104806 104889 107518 110715 112732 114003 114561 112877 
3171.999516525123 108937 106181 108234 114691 120975 122203 117385 110025 104093 
3160.433250899372 99391 92737 83790 76365 72759 70726 67786 65540 66736 71076 
3147.5818446485378 75816 79457 82278 84068 83145 78253 70920 64827 63285 66769 
3134.7304383977034 73054 78775 81020 78510 72917 67539 64242 61380 55799 46829 
3121.879032146869 37255 30973 29486 30825 31931 32084 33418 37245 41893 44515 
3109.027625896035 44823 44930 46150 46904 43958 36247 26396 18530 14796 14591 
3096.1762196452 16676 20646 26471 33711 40900 45655 45751 40882 32926 23601 
3083.3248133943657 13610 3864 -3592 -6823 -5321 -144 6440 11862 15016 16792 
3070.4734071435314 18183 19051 18950 18289 17248 15239 11663 7344 3906 2640 
3057.622000892697 3981 6479 7163 4066 -812 -2842 313 6109 10407 12069 13240 
3043.485454016779 15378 17111 16694 14972 14195 14905 15505 14747 13322 12960 
3030.6340477659446 15057 20193 27610 34812 39113 40390 41735 45759 51618 56499 
3017.7826415151103 59340 61229 62686 62725 61136 59575 59526 60221 59715 57554 
3004.931235264276 55488 55858 59244 64179 68423 70059 68187 63596 58500 55164 
2992.0798290134417 54490 56006 58601 61229 64076 68574 75945 85253 93979 100185 
2979.228422762607 103153 103029 100649 97785 96273 97085 99733 102821 104557 
2967.662157136856 103670 100668 97474 95157 92973 90202 88322 89639 93787 97248 
2954.8107508860217 96874 92685 87170 82732 80445 80346 82317 86086 90851 94996 
2941.9593446351873 97139 97061 95297 92332 88568 85339 84618 87237 91577 94638 
2929.1079383843526 95357 95735 97995 101277 102707 101161 98633 97142 95959 
2917.5416727586016 93019 87881 82719 80188 80803 82564 82981 81666 80899 83311 
2904.690266507768 89188 95899 100372 101923 102515 104292 107632 111094 112900 
2893.124000882017 112262 109620 105818 100888 94332 85347 72569 54822 33506 
2881.5577352562655 13589 758 -3261 -1491 2350 7189 13724 21330 27476 30038 29442 
2867.4211883803478 28253 28932 31874 35384 37203 36719 35625 36118 38056 38991 
2854.5697821295134 36991 32944 29421 27924 27882 28237 29056 30854 32882 32758 
2841.7183758786787 28608 21552 15412 13429 15394 18517 20278 20535 20845 22148 
2828.8669696278444 23521 23601 22850 23370 25973 29027 30058 28346 25305 23080 
2816.01556337701 22904 24523 26763 28165 27745 25437 22347 19936 18996 19304 
2803.1641571261757 20322 21433 22285 23174 24759 26865 28372 28851 28955 28843 
2790.3127508753414 27385 23938 19716 16632 15495 15987 17354 18626 18934 18468 
2777.4613446245066 18698 21081 25318 29400 31250 30742 30157 32019 36470 40981 
2764.6099383736723 43007 42082 39152 35097 30745 27152 25088 24122 23295 22233 
2751.758532122838 21374 21506 23099 25787 28421 29727 29022 26471 23223 21249 
2738.9071258720037 22016 24987 28183 30543 32716 35237 36618 34568 29126 23168 
2726.0557196211694 20048 20936 24562 28551 30784 30468 28406 26186 24860 24453 
2713.2043133703346 24199 23459 22516 22438 23948 26934 31048 35879 39864 40545 
2700.3529071195003 36952 31146 26748 25743 27147 28530 28680 28468 29123 30271 
2687.501500868666 30662 30216 30418 32188 34400 34724 32126 28056 25391 25841 
2674.6500946178317 28994 32952 36105 38006 39084 39911 40592 40937 41136 41369 
2661.7986883669973 41056 39227 36037 33164 31615 30343 27693 24026 21565 21832 
2648.9472821161626 24176 26751 28299 28727 29185 31128 35014 39561 42745 44010 
2636.0958758653283 44505 45298 46093 45676 43497 40486 38123 37263 37781 38981 
2623.244469614494 39794 38869 35657 31711 29807 30664 31765 30206 26344 23547 
2610.393063363659 24386 28297 32390 34470 34828 35157 36325 37610 37993 37470 
2597.5416571128253 36851 36714 36828 36421 35276 34206 33815 33346 31493 27908 
2584.6902508619905 23513 19442 16785 16458 18209 20361 21563 22358 24166 27206 
2571.838844611156 30291 32304 33224 33758 34281 34426 33825 32496 30898 29520 
2558.987438360322 28929 29566 31211 32825 33050 31517 29209 27406 26618 26748 
2546.136032109487 27781 29237 29771 28289 25432 22922 22221 23870 27256 30633 
2533.2846258586533 32164 31480 29628 27844 27025 27999 30921 34651 37447 38097 
2520.4332196078185 36530 33822 31833 32014 34444 37835 40281 40032 36333 30333 
2507.581813356984 25002 23249 25580 29740 32752 33224 31773 30227 30040 31232 
2494.73040710615 32501 33320 34325 35809 36817 36804 36688 37193 37677 37379 
2481.879000855315 36734 36825 38258 40748 43315 45090 45710 45173 43847 42870 
2469.0275946044812 43787 46855 50462 52961 54171 55371 57828 61605 65136 67189 
2456.1761883536465 68571 71011 74714 78578 81967 85440 89798 95284 101555 108019 
2443.324782102812 114328 120316 125435 129140 131931 135348 140827 148715 158275 
2431.758516477061 168705 180392 194509 211474 230771 252233 276267 302513 330208 
2420.1922508513103 359711 392436 430027 473149 521697 574430 630093 688783 751709 
2408.6259852255594 820078 896083 978803 1068519 1167041 1277255 1401870 1549110 
2398.344860224892 1752009 2109143 2842900 4358261 7232403 12132415 19719721 
2389.3488758493077 30611777 45420658 64764767 89624536 121570301 164583146 242409324 
2380.3528914737235 600000000 600000000 600000000 600000000 600000000 600000000 
2372.642047723223 600000000 600000000 600000000 600000000 600000000 600000000 
2364.931203972722 600000000 600000000 600000000 600000000 600000000 600000000 
2357.2203602222216 600000000 600000000 236853361 203791737 187261867 177625715 
2349.5095164717213 172040891 169406569 169304502 170509493 172728800 175870501 
2341.79867272122 179876554 184650242 190006566 195727920 201556730 207929897 
2334.08782897072 214299821 220187211 224726414 226805567 225863528 222163534 
2326.376985220219 216417741 212776422 208738422 204914760 201915597 200488066 
2318.6661414697182 201318836 205273246 214183664 212878561 213337278 215939116 
2310.955297719218 220939493 228070616 237374329 250587868 270303416 261139488 
2303.244453968717 244660663 225363230 208167791 194123232 181098210 166226160 
2295.5336102182164 149343240 133140897 119187247 107039010 95019692 82373124 
2287.822766467716 70392990 61128342 55767530 54143375 54910171 56222259 56734091 
2278.826782092132 56187194 54954421 53388655 51708281 50110405 48774766 47766301 
2269.8307977165477 46986851 46197709 45127350 43615454 41689839 39536106 37400805 
2260.8348133409636 35468742 33767533 32160359 30442598 28467974 26212555 23764887 
2251.8388289653794 21286790 18970002 16961954 15287771 13843882 12489394 11150489 
2242.8428445897953 9837616 8587376 7420823 6347633 5379990 4530456 3803136 3189459 
2232.561719589128 2671168 2228945 1849824 1526622 1253964 1027079 841361 690872 
2222.28059458846 569129 471191 393120 330777 280438 239303 204883 176085 153625 
2210.7143289627093 137389 125173 114977 106475 99417 93022 86685 79934 72743 
2199.1480633369583 66663 63609 63293 63689 63479 62474 61027 60071 60296 60822 
2186.296657086124 60545 59218 56636 52559 48260 45689 45287 46174 47702 49294 
2173.4452508352897 50322 51097 52427 54130 55304 55288 53464 50273 47858 47827 
2160.593844584455 49263 50439 51012 51121 50615 49781 49099 48462 48262 48980 
2147.742438333621 49517 48571 47381 48135 50636 53394 55475 55708 54889 61255 
2134.8910320827863 86978 132188 175389 188306 163331 121692 91027 80240 80914 
2123.3247664570354 84991 91009 98179 105180 112633 120144 124531 124835 124207 
2111.7585008312844 124864 125749 125136 121512 114668 107658 103343 99897 98216 
2100.1922352055335 112804 162188 240714 307086 315246 262001 193370 155277 153775 
2088.6259695797826 170765 192427 219721 307347 596850 1192544 1922437 2334708 
2078.344844579115 2111387 1438061 795070 473646 428354 489806 563853 635210 
2068.0637195784475 701891 759177 806026 840944 861466 867891 861192 842150 813254 
2056.4974539526966 776519 731873 680334 624082 563722 500609 439280 383083 331353 
2044.9311883269454 284031 244566 215592 194621 175280 151988 125370 102115 87160 
2033.3649227011945 78497 71677 65522 60693 57315 55804 56245 56898 56263 54982 
2020.5135164503602 53979 53062 52178 51662 50973 49517 47640 45658 43660 42447 
2007.6621101995256 42735 43777 44347 44098 43248 42214 42092 43181 44279 44443 
1994.8107039486913 43994 43261 42261 41657 42191 43445 44642 45730 46656 47096 
1981.959297697857 47143 47104 46972 46795 46772 46816 46715 46744 47347 48449 
1969.1078914470224 49794 51123 51893 51994 52121 52899 54060 54837 54397 52181 
1956.2564851961881 48571 44961 42582 41745 42188 43162 43546 42652 40724 38952 
1943.4050789453536 38854 41823 51841 78699 130716 196082 238850 228526 173622 
1931.8388133196027 113905 80665 75079 82535 93320 105976 120825 136405 149941 
1920.2725476938517 159202 163947 165451 164620 161730 157612 153373 149585 146102 
1908.7062820681008 142183 136825 129534 120710 111263 102159 94111 86924 79607 
1897.1400164423499 72009 65229 60078 56361 53699 51916 50750 50157 50361 50908 
1884.2886101915155 50486 48534 46150 44875 45243 46446 47135 46407 44295 41701 
1871.4372039406808 39867 39556 40579 41911 42771 43295 43935 44880 45956 46754 
1858.5857976898465 46516 44971 42984 41683 41242 41051 40486 39126 37074 35462 
1845.7343914390121 35605 37258 38747 39051 38698 38652 38949 38740 37429 35716 
1832.8829851881778 35115 36359 38359 39615 40056 40885 42857 45482 47581 48231 
1820.0315789373435 47135 44754 41851 38962 36488 35214 35887 38154 40470 41333 
1807.1801726865087 40398 38302 36226 35372 36379 38711 40706 40893 39030 36353 
1794.3287664356744 34628 34936 36789 38856 40154 40628 40621 40172 39291 38416 
1781.47736018484 38120 38234 37804 35988 33128 30742 30170 31348 33410 35908 
1768.6259539340058 38470 40115 40092 38939 37916 37190 36320 35789 36843 39421 
1755.7745476831715 41779 42118 40349 38110 37113 37732 38975 39468 38372 36100 
1742.9231414323367 34478 35356 38196 40416 40540 39833 39947 40667 41447 43085 
1730.0717351815024 45689 47399 46497 43696 40846 38607 36866 36014 36356 37188 
1717.220328930668 37695 38307 39766 41613 42191 40473 37447 35390 34908 33783 
1704.3689226798338 30449 27408 29061 35638 42717 46948 48620 49066 48711 48376 
1691.5175164289994 49957 54143 58728 60379 57950 53886 51509 51432 51274 48762 
1678.6661101781647 44681 42206 42782 43994 43300 41955 43593 48537 52624 52380 
1665.8147039273304 48905 46062 45966 47666 49136 49050 47425 46135 47977 53134 
1652.963297676496 57686 57976 54635 51745 52668 56779 60791 62432 61460 58191 
1640.1118914256617 52997 47402 44422 45876 49807 52450 51914 49161 45958 43116 
1627.260485174827 41007 40742 42994 46277 47918 46684 43935 42147 42263 43204 
1614.4090789239926 43577 43225 42927 42955 42636 41662 40802 41292 43520 46596 
1601.5576726731583 49250 50618 50786 50351 49973 50094 50828 51802 52479 52868 
1588.706266422324 53521 54576 55301 55190 54936 55662 57396 59018 59760 59744 
1575.8548601714897 58699 55744 51108 47301 46772 48970 51497 53321 54648 54783 
1563.003453920655 52160 46998 42326 40869 42484 45326 47814 49415 50506 51408 
1550.1520476698206 51354 49120 44836 40615 39260 42639 50281 58209 61224 57447 
1537.3006414189863 50172 44997 44914 47739 48892 46386 41714 37056 32729 28341 
1524.449235168152 24805 23474 23984 24878 25645 26520 27162 26748 25080 22775 
1511.5978289173177 20905 21086 24886 31501 37382 39626 38465 36112 34382 33623 
1498.7464226664829 33511 33491 32527 29628 25422 22513 23194 27067 31525 34377 
1485.8950164156486 35335 35501 35807 36006 35193 33068 30356 28053 27064 28134 
1473.0436101648143 31175 34400 35550 34219 32302 31864 32638 32343 29307 24507 
1460.19220391398 21392 22790 27994 33340 36050 36017 34918 34620 35851 37957 
1447.3407976631456 39701 40540 40805 40372 38164 33877 29680 28722 31310 34384 
1434.4893914123109 35452 35195 35638 37050 37877 37410 36576 36043 34926 32418 
1421.6379851614765 29724 29224 31794 36149 40465 43639 45308 45544 44585 42782 
1408.7865789106422 40698 39100 38278 37486 35993 34377 33908 34941 36690 38576 
1395.935172659808 40473 42030 42673 42414 41939 42048 43017 44588 46238 47609 
1383.0837664089736 48656 49216 48438 45616 41504 38216 37408 38807 40831 42100 
1370.2323601581388 42380 42165 41991 42059 42476 43331 44588 45907 46687 46485 
1357.3809539073045 45407 44163 43577 44005 45238 46614 47197 46381 44326 41815 
1344.5295476564702 39654 38385 38405 39595 41103 42004 42056 41714 41393 41079 
1331.6781414056359 40558 39735 38854 38421 38716 39462 40108 40260 39994 39688 
1318.8267351548016 39701 40128 40717 41193 41600 42009 42201 41867 41017 40253 
1305.9753289039668 40292 41333 42719 43437 43170 42657 42828 43834 44912 45039 
1293.1239226531325 43821 41670 39678 39032 40193 42551 44655 45466 45300 45453 
1280.2725164022982 46674 48407 49408 49099 48045 47215 47101 47397 47402 46606 
1267.4211101514638 44997 43124 41709 41149 41481 42579 44341 46438 48337 49592 
1254.5697039006295 50006 49612 48695 47568 46220 44531 42841 42069 42636 43849 
1241.7182976497947 44481 43994 42849 41888 41419 41134 40636 40035 39688 39595 
1228.8668913989604 39442 38991 38473 38333 38688 39110 39079 38711 38918 40310 
1216.0154851481261 42276 43520 43266 41711 39662 38056 37659 38623 40149 40999 
1203.1640788972918 40504 39177 38141 38118 39030 40387 41849 43194 44056 44054 
1190.312672646457 43103 41551 39947 38854 38670 39346 40113 40056 39074 37939 
1177.4612663956227 37418 37693 38677 40307 41965 42351 40584 37400 34677 33794 
1164.6098601447884 34584 35952 36874 37144 37333 38001 38957 39255 38175 36182 
1151.758453893954 34581 34169 34532 34944 35185 35294 35050 34511 34467 35579 
1138.9070476431198 37382 38776 39170 38727 37791 36817 36408 36763 37263 36885 
1126.055641392285 35250 33125 31799 31841 32535 32776 32276 31672 31659 32615 
1113.2042351414507 34576 37348 40374 43061 45176 46425 46256 44479 42149 41219 
1100.3528288906164 43129 47925 54801 63065 72536 83414 95800 109558 124217 139222 
1087.501422639782 154316 169658 185243 200225 212782 221138 224453 222710 216143 
1075.9351570140311 205086 190365 173149 154108 133538 112565 94073 81998 79197 
1064.3688913882802 85943 99798 116809 133245 146697 156552 163404 167920 170152 
1052.8026257625293 169845 166909 161878 155729 149333 142850 135628 127353 118935 
1041.2363601367779 111787 106241 101062 94890 87678 80452 74221 69245 65227 
1029.670094511027 61833 58902 56151 53020 49180 45264 42595 41872 42388 42696 
1016.8186882601926 41937 40382 38900 38247 38641 39812 41245 42419 42942 42647 
1003.9672820093583 41693 40395 39087 38273 38721 40786 44054 47620 51160 55179 
991.115875758524 60198 66064 72445 79534 88015 98195 109547 121209 132242 141357 
978.2644695076897 147188 149299 148653 146279 141884 134307 123270 109929 95829 
966.6982038819383 82081 70031 61981 59946 64159 72969 84242 96140 107027 115708 
953.846797631104 121795 125456 126876 126559 125427 124116 122379 119521 115355 
942.280532005353 110263 104541 98013 90493 82597 75538 70241 66730 64353 62352 
929.4291257545187 60001 57017 53744 50919 49115 48643 49496 51248 53158 54350 
916.5777195036844 54132 52168 48967 45738 43492 42530 42818 44238 46358 47881 
903.7263132528501 47534 45375 43036 42160 42867 43870 44106 43598 43033 42691 
890.8749070020153 42266 41429 40496 39994 39714 38892 37325 35773 35027 35247 
878.023500751181 36068 37068 38092 39190 40014 39659 38043 36514 36172 36434 
865.1720945003467 36239 35698 35765 37097 39509 41696 41781 39245 35835 33929 
852.3206882495124 34400 36397 38219 38729 38157 37208 35566 32335 28072 25015 
839.4692819986781 24963 27528 30105 30442 29566 30657 34382 37457 37475 36304 
826.6178757478433 36804 38900 40579 40693 39745 39152 40123 43240 48563 55553 
813.766469497009 62230 65963 65875 63316 60397 58974 59718 60921 59855 54570 
800.9150632461747 46443 50037 98527 213516 354222 424487 363268 213732 75445 
789.3487976204237 4926 -12050 -11667 -10492 -7930 -1620 7590 17365 26688 37418 
776.4973913695894 52432 72683 98081 129446 168723 218087 278648 350947 439900 
764.9311257438385 558834 724137 943030 1204048 1481807 1761357 2058916 2405647 
754.650000743171 2811626 3264421 3751578 4265992 4844415 5655483 6939321 8674615 
744.3688757425034 10313710 11120118 10936520 10343968 9959187 9898252 9936522 
735.3728913669192 9888977 9697575 9334336 8784957 8061541 7309111 7208462 9192670 
725.0917663662517 14672040 23193810 30317473 30155763 24162717 18612258 16481935 
716.0957819906675 17301252 19577753 22358798 25394576 28653198 32191023 36184644 
707.0997976150834 40780791 45998686 51699584 57523638 63114362 0 
##END
##TITLE=MCT D317 1mm² [8500 - 700 Cm-1]
##JCAMP-DX=5.01
##ORIGIN=opus
##OWNER=Arnaud@DESKTOP-0U3PKHV
##LONGDATE=2020/02/06
##TIME=12:10:06
##XUNITS=1/CM
##YUNITS=ABSORBANCE
##FIRSTX=3998.3449384537757
##LASTX=699.3889538645833
##FIRSTY=0.000459045433672145
##LASTY=0.0
##MAXX=3998.3449384537757
##MINX=699.3889538645833
##MAXY=6.0
##MINY=-0.00024895163369365036
##XFACTOR=1.000000
##YFACTOR=1.000000E-08
##NPOINTS=2568
##XYDATA=(X++(Y..Y))
3998.3449384537757 45904 23246 27370 36493 47718 58990 67345 69092 63231 52748 
3986.778672828025 41408 30652 21558 14995 11119 9164 8328 6715 2863 -569 3326 
3972.642125952107 18724 41113 59526 65393 58671 47804 42357 45448 50574 49104 
3959.7907197012723 39450 29082 25049 25891 25533 23034 24432 34413 48273 55433 
3946.939313450438 50138 38452 31426 32633 34986 31848 25419 22363 25836 33654 
3934.0879071996037 42434 49571 53199 52292 47876 43406 42351 44468 46054 45013 
3921.2365009487694 44191 46764 51121 52582 49856 46140 44971 46780 49369 50284 
3908.385094697935 48026 44025 41745 43414 46837 48374 48032 48786 50558 49467 
3895.5336884471003 43157 34644 29579 31866 41180 53780 64169 66800 58559 42903 
3882.682282196266 29455 27178 36385 49441 58176 58754 51626 41535 35545 37936 
3869.8308759454317 44849 47736 42035 31822 24912 25132 30841 40429 52632 61001 
3856.9794696945974 56398 38698 22195 20105 29934 40647 45777 46746 48540 53715 
3844.1280634437626 59967 63682 63047 57108 46225 34887 30074 34631 45692 58137 
3831.2766571929283 66391 66546 60185 53005 47347 39613 27983 19426 22534 36496 
3818.425250942094 50499 54296 47780 39773 37133 40437 47868 58539 70726 80652 
3805.5738446912596 84545 81749 75665 70829 66896 59840 48630 36491 25398 15482 
3792.7224384404253 9861 13273 24821 36879 41077 34496 22827 18320 29556 53837 
3779.8710321895906 80660 101607 114733 123779 135096 152284 177395 212652 257616 
3768.3047665638396 303694 340786 369993 405817 458915 545345 691101 926436 1283373 
3756.7385009380887 1814628 2618027 3842915 5676603 8269385 11649767 15747714 
3747.7425165625045 20505474 25918456 32001811 38773640 46216994 54017210 61474657 
3738.746532186921 67988061 73712784 79281371 84902054 90113246 94253200 96845680 
3729.7505478113367 97564154 96195924 92896288 88283061 83008474 77198249 70651495 
3720.7545634357525 62877905 54097700 45818409 40104910 38431525 41118270 47153937 
3711.7585790601684 54287451 60299724 64361780 66726309 67739677 67668497 66815215 
3702.762594684584 65423327 63596391 61336350 58670735 55744308 52737408 49694037 
3693.766610309 46497237 43047097 39435949 35946625 32809430 30003938 27354523 
3684.7706259334163 24758861 22263036 19972229 17936143 16123615 14446949 12847848 
3675.774641557832 11364771 10071376 8967767 7990647 7094889 6287209 5581526 
3666.778657182248 4975555 4465773 4054242 3742695 3534256 3430835 3428280 3512620 
3656.4975321815805 3673323 3927444 4334888 4987772 5972894 7339721 9101397 11259110 
3646.216407180913 13798281 16677045 19849741 23288765 26948466 30737954 34589093 
3637.220422805329 38527205 42587387 46693587 50694859 54454803 57822120 60608774 
3628.2244384297446 62689399 63919115 63955807 62413161 59281563 55010890 49976751 
3619.2284540541605 44088345 37168359 29996842 24345386 21868892 23161964 27527084 
3610.2324696785768 33319091 38797572 43170428 46620565 49448892 51606464 52939838 
3601.2364853029926 53520846 53551715 53080606 52071422 50638961 48948299 46943220 
3592.2405009274084 44457855 41540068 38420769 35214707 31899017 28551253 25422105 
3583.2445165518243 22762534 20685671 19191367 18232691 17703749 17408165 17122070 
3574.24853217624 16724070 16229195 15695156 15146005 14578254 13977243 13309517 
3565.252547800656 12554664 11745988 10942671 10167244 9401903 8638406 7900184 
3556.2565634250723 7218734 6607833 6060495 5562506 5106711 4693443 4319966 3978668 
3545.9754384244043 3666391 3383808 3125784 2881731 2643715 2408892 2177069 1949833 
3535.694313423737 1727528 1507579 1290394 1088079 922541 814069 770331 781674 
3525.4131884230696 827077 885905 944064 992032 1024241 1041633 1047751 1042697 
3515.132063422402 1024349 992663 948861 894366 833262 771741 713491 658155 603669 
3503.565797796651 548420 492984 440870 396205 360997 334298 312329 289294 262902 
3491.9995321709002 237286 218238 206924 200649 196499 192512 187682 182012 174607 
3480.4332665451493 164284 152915 144874 140264 133559 120414 103143 87813 78842 
3468.867000919398 76669 78510 81456 84587 87987 90965 92516 92591 90905 86534 
3456.0155946685636 78515 66647 52810 43305 45666 60737 79223 89253 86488 76347 
3443.1641884177293 66793 61362 59568 60252 62124 62608 60659 58419 57665 57092 
3430.312782166895 55610 55213 57079 58642 57424 54487 51782 49773 49413 53261 
3417.46137591606 62481 74273 83173 84602 77854 66844 57313 52932 53046 53881 
3404.609969665226 52769 51795 55516 63697 70036 68812 61012 51924 45637 44142 
3391.7585634143916 48045 56281 65896 74478 81801 87839 91657 93338 95354 99596 
3378.9071571635573 103763 103094 94879 81166 67498 59741 60211 66681 74885 82180 
3366.055750912723 88929 96218 103807 109459 110917 108071 103561 100504 100045 
3354.489485286972 101096 101967 101391 98989 95313 91190 86638 81280 75982 73072 
3341.6380790361372 74491 79623 85904 91810 98151 106264 115137 121728 123278 
3330.0718134103863 119760 114714 111813 111180 109635 105229 99920 97502 100128 
3318.5055477846354 106737 114001 118429 118966 117873 118281 121401 125033 126011 
3306.9392821588845 123623 121268 123031 128405 131845 128986 122382 119070 123122 
3295.3730165331335 131887 139004 140287 135621 127351 118486 112820 112975 118395 
3283.8067509073826 125723 131669 135039 136355 136768 137158 138441 141726 146762 
3272.2404852816317 150562 149702 144585 139176 136703 136773 138116 140664 143598 
3260.6742196558807 143752 139279 133811 133717 140708 150079 155965 156017 151042 
3249.10795403013 143302 135976 132388 133390 136625 138963 138596 135151 130126 
3237.541688404379 127335 130516 139350 148583 152830 151876 150250 151341 153715 
3225.975422778628 153957 151024 146476 142635 141617 144164 148175 150398 150201 
3214.409157152877 149723 149798 148092 142718 135361 129893 127922 128161 128241 
3202.8428915271256 127086 125700 126216 130648 138830 147679 152323 149479 140292 
3191.2766259013747 128929 119148 112054 107289 104209 101866 98862 94672 91087 
3179.7103602756238 90679 94140 99505 104010 105315 102237 95598 89585 89523 
3168.144094649873 96457 105084 108719 106540 102902 101090 99749 96005 89621 
3156.577829024122 83357 79856 79477 80634 81656 82356 83272 84169 84345 83565 
3143.7264227732876 81612 77413 70306 62795 59472 62632 69642 75365 76573 73412 
3130.875016522453 67594 60643 53863 49050 47495 48138 48348 46350 43072 40064 
3118.023610271619 37372 34633 33447 36214 41950 46586 47024 43849 39509 35986 
3105.172204020784 34024 33157 32356 30872 28608 25823 23409 22726 24186 26694 
3092.32079776995 29538 33509 38491 41354 38773 31069 21324 12100 4698 364 -144 
3078.184250894032 1993 4242 5061 5159 6759 10782 15389 17486 16220 13644 11637 
3064.047704018114 9985 7782 5648 4695 4848 5449 5941 5376 2837 -419 -1361 996 
3048.626016517113 3999 4789 3971 4245 6490 8941 10070 10461 11305 12346 12010 
3034.489469641195 9853 7365 6798 9552 15925 24945 34027 40064 42258 42991 45114 
3020.352922765277 49050 53360 56932 59874 62357 63801 63879 63389 63472 64052 
3007.5015165144428 63700 61893 60262 60643 62515 63757 63430 61908 58909 53899 
2994.6501102636084 48768 47658 52909 62015 69372 71509 70202 70780 76796 86579 
2981.7987040127737 95185 99316 99544 98753 99292 101853 105268 107520 107160 
2970.2324383870227 104837 102481 100784 98558 94641 89966 86501 85022 84791 
2958.666172761272 85777 88781 93497 97310 96983 91717 84306 79283 79270 83303 
2945.8147665104375 88345 91964 93572 94156 94856 95629 95593 94615 94052 95217 
2932.963360259603 97430 98460 96708 92835 89053 87248 87512 88563 89240 89222 
2920.111954008769 88360 86138 82590 78871 76469 75595 75170 74268 73560 74869 
2907.2605477579345 79298 85928 92506 97108 99295 100159 101817 105932 112298 
2895.6942821321836 118605 121995 121133 116723 110235 102725 94791 85863 73954 
2884.1280165064327 57341 37351 18618 5573 -289 -357 3637 10236 18108 25766 31957 
2869.9914696305145 36136 38667 40748 43380 46490 49027 49838 49014 47819 46961 
2857.14006337968 45145 40608 34017 28672 27271 28999 30473 29398 26743 25191 
2844.2886571288454 25872 27212 27004 24694 21425 18882 18395 20612 24495 27667 
2831.4372508780116 28266 26538 24106 22648 22948 24567 26341 27784 29520 31677 
2818.585844627177 32934 31882 28761 25204 23181 23850 27012 30639 32190 30411 
2805.7344383763425 26147 21218 17360 15381 14817 14739 14959 16158 18546 21822 
2792.883032125508 25352 27805 27116 22612 16678 13043 13032 14897 16668 18338 
2780.0316258746734 20799 23914 26181 26256 24632 23236 23132 23503 23547 24515 
2767.1802196238395 28048 33219 36807 36522 33001 28460 24593 22052 21084 21596 
2754.328813373005 22767 23155 22031 20335 20006 22068 25595 28685 29968 28849 
2741.4774071221705 25709 21726 18584 17173 17025 17432 18688 21622 26025 30180 
2728.626000871336 32032 30338 25531 20169 17372 18206 21091 24078 26227 27168 
2715.7745946205014 26862 26183 25803 25106 23541 22379 23749 27864 32592 35607 
2702.9231883696675 36343 35838 35239 34462 32571 29157 24803 20444 17525 17999 
2690.0717821188327 22552 28735 32698 32776 30519 28455 27942 28608 29317 29219 
2677.2203758679984 28771 29191 31263 34110 35688 34719 31916 29390 28815 30328 
2664.368969617164 32960 35558 37302 37662 36504 34027 30574 26696 23425 22441 
2651.5175633663293 24697 29188 33330 34960 33799 31216 29434 30260 33688 37594 
2638.6661571154955 39514 39043 37778 37670 39543 42634 45106 45655 44538 42916 
2625.8147508646607 41572 40737 40501 40276 38807 35392 31167 28004 26367 25287 
2612.9633446138264 24272 24272 26248 29696 32887 34602 35076 35219 35543 36043 
2600.111938362992 36545 36734 36431 36102 36356 37081 37732 38289 38618 37737 
2587.2605321121573 34851 30620 26471 23241 21534 21977 24023 25652 25476 24070 
2574.4091258613234 22679 21741 21420 22327 25152 29981 35781 40444 41890 39735 
2561.5577196104887 35760 32429 31273 32118 33548 34094 33239 31667 30038 28312 
2548.7063133596544 26367 25401 27082 31201 35229 36613 35022 31646 28180 26388 
2535.85490710882 27473 30797 33918 34939 33667 31035 28460 27543 29229 32439 
2523.0035008579853 34962 35366 34061 32491 31931 32778 34680 36784 38240 38377 
2510.1520946071514 36773 33473 29631 27377 28103 30957 34040 36561 38742 40255 
2497.3006883563166 40040 37784 34884 33669 35258 38333 40395 40574 39991 39501 
2484.4492821054823 38550 36732 35017 34856 36607 39325 41585 42888 43660 44062 
2471.597875854648 43598 42476 42266 44018 46754 49104 50815 52196 53147 53689 
2458.7464696038132 54653 57421 62919 70420 77836 83668 87717 90428 92490 95097 
2445.8950633529794 99552 105686 112065 117372 121318 124261 126876 130485 136605 
2434.328797727228 145858 157334 169677 182688 197104 213061 230566 250617 274149 
2422.762532101477 300295 327665 357116 390915 430511 475158 523497 574351 627971 
2411.196266475726 686043 749963 819545 895610 977413 1066667 1166066 1278057 
2400.9151414750586 1404113 1551384 1752745 2107613 2839865 4355493 7231198 12132628 
2390.634016474391 19719970 30610305 45416003 64754366 89608472 121562385 164680385 
2381.6380320988073 243805408 600000000 600000000 600000000 600000000 600000000 
2373.927188348306 600000000 600000000 600000000 600000000 600000000 600000000 
2366.216344597806 600000000 600000000 600000000 600000000 600000000 600000000 
2358.505500847305 600000000 600000000 600000000 233878350 202462077 186413681 
2350.7946570968043 176977682 171480798 168882191 168788564 170056152 172327017 
2343.083813346304 175484776 179451406 184132826 189382481 195042371 200893020 
2335.372969595803 207350707 213769006 219508290 223655080 225382661 224509787 
2327.6621258453024 221240162 215892124 212352347 208231759 204277324 201119208 
2319.951282094802 199481844 200069594 203797221 212462401 211530423 212230229 
2312.2404383443013 214916467 219908928 226972270 236111927 249045991 268466210 
2304.5295945938005 259979629 244179224 225328063 208378958 194419801 181347715 
2296.8187508433 166379559 149439656 133232235 119288480 107138526 95098710 82423293 
2287.822766467716 70420426 61144351 55782473 54164594 54939329 56253290 56757086 
2278.826782092132 56197917 54957133 53390449 51714164 50123232 48796629 47797316 
2269.8307977165477 47023460 46233227 45154976 43631654 41695907 39536792 37401279 
2260.8348133409636 35471960 33774074 32169857 30454456 28480592 26223388 23772314 
2251.8388289653794 21291308 18972960 16963860 15288724 13844828 12491919 11155299 
2242.8428445897953 9844094 8594819 7429216 6356717 5388393 4536530 3806490 3191200 
2232.561719589128 2672467 2230059 1850434 1526657 1253809 1027225 842066 692063 
2222.28059458846 570425 472052 392945 329334 278296 237913 205947 180327 160055 
2210.7143289627093 143842 129823 117294 106659 97518 89019 81671 76052 71470 
2199.1480633369583 67373 64135 61994 60537 59384 58038 56395 55470 56024 56812 
2186.296657086124 56361 54881 52984 50841 49161 48578 47972 46189 44316 43841 
2173.4452508352897 44378 45000 45899 47684 50322 52800 53355 51307 48301 46368 
2160.593844584455 45627 45559 46412 48065 49636 50773 51582 51561 50615 49382 
2147.742438333621 47936 46044 44834 45614 47780 50268 52684 53928 54231 61110 
2134.8910320827863 86275 129963 171199 182415 156630 115659 87141 79190 81993 
2123.3247664570354 86641 91792 97328 102274 107557 113541 117821 119454 121094 
2111.7585008312844 124329 127434 127810 123597 115052 105797 98960 93050 89694 
2100.1922352055335 103911 153835 233062 299985 308702 256334 188976 152528 152845 
2088.6259695797826 171589 194704 222939 310824 600023 1195213 1924748 2336713 
2078.344844579115 2112526 1437293 791680 467860 421359 482770 557258 629218 
2068.0637195784475 697127 756485 805316 840944 861128 867508 861685 843573 814457 
2056.4974539526966 776234 729657 676674 619954 560066 497713 436584 379803 327331 
2044.9311883269454 280073 241424 212905 191301 170758 146866 120656 98138 83536 
2033.3649227011945 74898 68620 63995 61165 59093 57445 56802 56724 56333 55547 
2020.5135164503602 54057 51450 48809 47687 47824 48159 48547 48757 48179 47161 
2007.6621101995256 46640 46637 46676 46485 45383 42688 39390 37100 36201 36167 
1994.8107039486913 36483 36545 36315 36942 39271 42209 44207 45062 45412 46075 
1981.959297697857 47687 49864 51095 50595 49104 47391 45349 43041 41385 41385 
1969.1078914470224 43269 46262 48845 50434 51706 53090 54013 54047 53451 52360 
1956.2564851961881 50525 48011 45331 43056 41553 40722 40219 39773 39289 38802 
1943.4050789453536 38797 40530 48628 73894 125650 192536 237658 228422 172281 
1931.8388133196027 110588 76923 72613 80995 91006 102154 116500 133154 148432 
1920.2725476938517 158675 162905 162871 161026 158948 157111 154703 150619 144822 
1908.7062820681008 138178 131058 123246 114886 106604 98953 92026 85331 78308 
1897.1400164423499 71224 64892 59397 54220 49711 46943 46244 46884 47959 48734 
1884.2886101915155 48498 47081 44976 42950 41613 41315 41732 41787 40530 38289 
1871.4372039406808 36558 36623 38460 40906 42771 43492 43064 42152 41846 42484 
1858.5857976898465 42966 42206 40774 40144 40732 41287 40364 37610 34278 32519 
1845.7343914390121 33530 36131 37898 37890 37426 38196 40128 41344 40071 36695 
1832.8829851881778 33654 32939 33954 34597 34265 34659 37369 41719 45432 46907 
1820.0315789373435 46306 44852 43282 41149 38071 35136 34405 36499 39589 41136 
1807.1801726865087 40258 37877 35498 34144 34053 34833 35597 35602 34864 34470 
1794.3287664356744 35568 38066 40325 40942 40152 39413 39701 40553 40906 40385 
1781.47736018484 39571 38962 38177 36457 33840 31491 30569 31291 33281 36048 
1768.6259539340058 38618 39473 38074 35830 34828 35535 36879 38144 39561 40898 
1755.7745476831715 40831 38185 33763 30108 29258 31118 33952 35755 35268 32835 
1742.9231414323367 30750 31398 34172 36045 35589 34501 34690 35791 37037 38947 
1730.0717351815024 41328 42465 41367 39190 37465 36299 35436 35247 35752 36273 
1717.220328930668 36522 37232 38924 40867 41403 39387 35615 32553 31455 30475 
1704.3689226798338 27561 24482 25549 31750 39413 45140 48565 50338 50566 50071 
1691.5175164289994 50828 53684 56719 57178 54648 51515 50115 50297 49942 47394 
1678.6661101781647 43572 41219 41608 42751 42504 41810 43315 46941 49397 48516 
1665.8147039273304 45984 45015 46645 49141 50151 48418 44505 41325 42795 49247 
1652.963297676496 55703 57478 54912 52080 52310 55309 58616 60527 60433 57854 
1640.1118914256617 52761 46772 43118 43862 47516 50610 50947 48858 45839 42787 
1627.260485174827 40128 38994 40522 43948 46780 47187 45780 44546 44370 44399 
1614.4090789239926 43834 42963 42385 41882 40898 39828 39921 41950 45401 48830 
1601.5576726731583 51165 52271 52707 52878 52621 51655 50307 49377 49408 50335 
1588.706266422324 51712 53054 53902 54262 54835 56421 58876 61061 62124 62017 
1575.8548601714897 60405 56400 50426 45220 43593 45469 48638 51636 53759 53679 
1563.003453920655 50048 43922 39084 38183 40369 43305 45476 46661 47381 47969 
1550.1520476698206 47783 45702 41670 37480 35965 39271 47083 55415 58987 55835 
1537.3006414189863 48957 43660 43056 45521 47011 45316 41455 37382 33631 29823 
1524.449235168152 26595 24989 24546 23979 23409 24085 26144 28046 28227 26279 
1511.5978289173177 23153 21081 22676 28022 33758 36457 35449 32237 28825 27002 
1498.7464226664829 27802 30325 31934 30659 27427 25246 26207 29579 32993 34890 
1485.8950164156486 35242 34918 34540 33973 32846 31258 29701 28473 27885 28714 
1473.0436101648143 31260 33960 34522 32633 30587 30613 32159 32457 29724 24994 
1460.19220391398 21545 21956 25681 29872 32524 33462 33258 32644 32511 33561 
1447.3407976631456 35501 37543 39206 39903 38455 34483 30092 28463 30180 32501 
1434.4893914123109 33141 32773 33418 35325 36737 36579 35724 35216 34397 32239 
1421.6379851614765 29716 29136 31304 34701 37685 39750 40957 41100 39861 37460 
1408.7865789106422 35045 34291 35874 38294 39351 38649 37758 37861 38574 39206 
1395.935172659808 39887 40789 41331 40957 40222 40457 42230 44627 46306 46837 
1383.0837664089736 46884 46925 46495 44650 41507 38721 38154 39968 42551 44119 
1370.2323601581388 44243 43559 42774 42108 41652 41701 42484 43676 44396 44067 
1357.3809539073045 43116 42541 42839 43686 44689 45785 46751 46876 45456 42465 
1344.5295476564702 38683 35343 33703 34338 36695 39421 41310 41981 41781 41209 
1331.6781414056359 40512 39854 39481 39615 40048 40346 40273 40017 39911 40102 
1318.8267351548016 40533 41066 41429 41447 41401 41784 42644 43388 43378 42753 
1305.9753289039668 42147 41947 41867 41437 40831 40833 41921 43536 44479 44132 
1293.1239226531325 42870 41364 40121 39592 40323 42375 44798 46301 46420 45883 
1280.2725164022982 45622 45992 46715 47259 47259 46868 46632 46852 47119 46860 
1267.4211101514638 46091 45181 44344 43660 43256 43116 43095 43235 43880 45015 
1254.5697039006295 45922 45964 45316 44401 43207 41709 40618 40745 41639 42015 
1241.7182976497947 41551 41416 42471 43927 44334 43264 41556 40323 39996 40196 
1228.8668913989604 40281 40128 40248 40841 41442 41673 41971 42903 44204 44862 
1216.0154851481261 44308 43028 41978 41636 41753 41908 41939 41875 41600 40900 
1203.1640788972918 39690 38162 36778 36092 36343 37232 38276 39183 39898 40338 
1190.312672646457 40232 39434 38429 38346 39942 42546 44427 44502 43175 41579 
1177.4612663956227 40387 39564 38903 38421 38260 38328 38120 37157 35667 34555 
1164.6098601447884 34615 35874 37677 39333 40610 41706 42745 43287 42665 40963 
1151.758453893954 39325 38758 38937 38696 37556 36229 35558 35701 36260 36897 
1138.9070476431198 37540 38328 39258 39867 39626 38657 37636 36954 36426 35768 
1126.055641392285 34960 34219 33869 34102 34664 35102 35304 35540 35882 36283 
1113.2042351414507 36843 37729 38714 39405 39924 40755 42098 43608 44922 46153 
1100.3528288906164 47941 51012 55890 62769 71636 82348 94700 108439 123275 138892 
1087.501422639782 154999 171285 187159 201660 213453 221261 224287 222434 216078 
1075.9351570140311 205663 191550 174118 153965 132344 111548 94742 85015 83962 
1064.3688913882802 90967 103428 117930 131881 144341 155253 164207 170090 172143 
1052.8026257625293 170778 167353 163113 158545 153487 147616 140622 132435 123454 
1041.2363601367779 114473 105982 97951 90309 83497 77963 73583 69997 67192 65149 
1028.3849538859436 63189 60291 56123 51377 47252 44800 44380 45114 45090 43196 
1015.5335476351092 40286 38198 37701 38201 39172 40527 41639 41336 39333 36934 
1002.6821413842749 35633 35791 36991 38918 41372 43826 45917 48348 52647 59705 
989.8307351334406 68693 77965 86586 94815 103363 112625 122421 131840 139560 
978.2644695076897 144775 147611 148299 146216 140596 131752 120993 109251 96714 
966.6982038819383 83746 72030 64192 62051 65608 73339 83339 93951 104017 113035 
953.846797631104 120801 126819 130217 130812 129597 127847 125848 122875 118452 
942.280532005353 113082 107645 102139 95873 88602 81220 74973 70360 66829 63474 
929.4291257545187 59972 56908 54757 53215 51820 51025 51668 53513 55293 55734 
916.5777195036844 54391 51592 48236 45181 42691 40869 40266 41561 44510 47578 
903.7263132528501 49055 48516 47324 47272 48495 49299 48286 46075 44417 43803 
890.8749070020153 43038 41154 38970 38035 38330 38493 37895 37232 37154 37571 
878.023500751181 38400 39918 41991 43663 43647 41377 38063 36092 36597 38263 
865.1720945003467 39144 38999 39100 40460 42916 45370 46619 46285 44632 42121 
852.3206882495124 39279 36511 33701 30895 29123 29297 30675 31882 32859 34206 
839.4692819986781 35732 36872 37646 38449 39890 42028 43336 41489 36846 32843 
826.6178757478433 32100 34157 37346 40753 44119 47796 52419 57958 63386 67417 
813.766469497009 68900 67697 65447 63951 63492 63682 64571 65805 66235 63925 
800.9150632461747 58196 60967 104780 213755 350704 420951 361932 214739 78681 
789.3487976204237 11414 -724 4802 8597 8998 9221 12810 21519 33568 46093 58839 
775.212250744506 74473 96433 126723 166558 218500 285607 369064 470058 594415 
763.6459851187547 753213 956823 1203572 1474501 1751392 2044823 2387246 2795241 
753.3648601180871 3258703 3759871 4284873 4867264 5676735 6958127 8696722 10345891 
743.08373511742 11160352 10973338 10369141 9975117 9909834 9942325 9882310 9674556 
732.8026101167525 9297137 8740573 8019818 7276155 7180008 9159398 14639225 23204410 
722.5214851160849 30454194 30439248 24494346 18902385 16700971 17469471 19744125 
713.5255007405008 22556149 25605088 28821861 32272967 36183276 40773904 46124631 
704.5295163649166 52065199 58091288 63757330 0 
##END
##TITLE=MCT D317 1mm² [8500 - 700 Cm-1]
##JCAMP-DX=5.01
##ORIGIN=opus
##OWNER=Arnaud@DESKTOP-0U3PKHV
##LONGDATE=2020/02/06
##TIME=12:10:10
##XUNITS=1/CM
##YUNITS=ABSORBANCE
##FIRSTX=3998.3449384537757
##LASTX=699.3889538645833
##FIRSTY=0.000459045433672145
##LASTY=0.0
##MAXX=3998.3449384537757
##MINX=699.3889538645833
##MAXY=6.0
##MINY=-0.00024895163369365036
##XFACTOR=1.000000
##YFACTOR=1.000000E-08
##NPOINTS=2568
##XYDATA=(X++(Y..Y))
3998.3449384537757 45904 34418 32799 33962 37610 43701 51445 55612 49073 30258 
3986.778672828025 7385 -8531 -11636 -4203 6715 14731 17877 17041 13732 11160 
3973.9272665771905 14835 27056 42165 50807 48985 40139 30644 25940 28978 37514 
3961.0758603263557 45609 49384 50763 52510 53199 49734 42442 35747 33747 36410 
3948.2244540755214 38970 36203 29398 24712 24930 26155 24528 20781 17085 14700 
3935.373047824687 15099 20177 28696 36719 42219 46964 54003 63111 69313 66419 
3922.521641573853 53627 37763 27162 25077 29810 38447 47775 54169 55462 52764 
3909.6702353230185 48493 43689 39354 37429 39825 45142 49540 50081 46658 40579 
3896.8188290721837 33491 26248 19638 15171 15221 19931 27041 35120 43515 48967 
3883.9674228213494 47832 42110 38151 37701 36877 33675 31043 31012 32693 35830 
3871.116016570515 40779 43546 38258 25336 14464 14672 23466 30525 31638 32517 
3858.2646103196807 37522 42792 43212 40271 37268 33053 26652 21920 24251 34685 
3845.4132040688464 49483 63643 74351 80686 81085 74781 65255 58375 57440 61644 
3832.5617978180117 67959 71086 66266 54581 42022 31387 20055 6865 -2158 178 
3819.7103915671773 14037 31527 42735 43396 38509 36157 40618 51382 65600 79304 
3806.858985316343 89110 92698 88560 77055 62932 51950 46047 43289 40416 33988 
3794.0075790655087 23111 11839 6075 7686 13581 18926 20325 19110 23461 41463 
3781.1561728146744 71789 103179 123971 130970 130884 135356 151684 181014 220850 
3769.5899071889235 267462 313724 352364 383522 418253 467617 550934 694804 927464 
3758.023641563172 1282064 1815054 2624126 3852970 5685026 8274164 11655031 15759128 
3747.7425165625045 20525431 25946024 32033333 38801369 46229013 54000514 61421269 
3738.746532186921 67905521 73631203 79245907 84945213 90223133 94368451 96895629 
3729.7505478113367 97518479 96086436 92788356 88217031 82975894 77168172 70603650 
3720.7545634357525 62818109 54044413 45785892 40097323 38446092 41148588 47190874 
3711.7585790601684 54322785 60331827 64397579 66774231 67798471 67724680 66854363 
3702.762594684584 65440773 63599759 61338311 58681732 55767148 52766078 49716851 
3693.766610309 46502217 43026992 39393860 35898631 32777547 30002140 27380219 
3684.7706259334163 24797619 22300919 20002701 17958085 16136340 14449629 12843105 
3675.774641557832 11359878 10074105 8981488 8011801 7115516 6300716 5587829 
3666.778657182248 4980644 4475753 4069267 3757048 3542560 3433227 3428708 3514166 
3656.4975321815805 3676512 3931776 4339766 4992377 5976916 7344476 9108446 11267679 
3646.216407180913 13806498 16685546 19861108 23301853 26954936 30728650 34565535 
3637.220422805329 38503023 42577591 46703073 50718224 54483461 57848882 60629391 
3628.2244384297446 62701201 63919764 63944828 62396883 59268856 55000591 49957379 
3619.2284540541605 44055265 37134152 29977932 24345654 21879905 23172461 27532583 
3610.2324696785768 33327642 38822776 43212649 46660086 49464243 51594781 52918350 
3601.2364853029926 53511220 53566509 53120380 52126598 50694143 48992007 46977743 
3592.2405009274084 44494527 41586154 38471838 35260495 31931439 28567147 25423964 
3583.2445165518243 22756771 20678111 19182799 18220821 17689459 17397329 17120288 
3574.24853217624 16731803 16242001 15707252 15152770 14578108 13973292 13308943 
3565.252547800656 12564745 11769005 10974345 10200599 9433057 8666916 7924385 
3556.2565634250723 7234036 6611070 6053900 5551474 5094708 4681121 4307407 3966721 
3545.9754384244043 3655556 3373335 3114336 2868953 2631928 2403083 2180909 1961101 
3535.694313423737 1739330 1515502 1296843 1098058 936919 828964 782016 789223 
3525.4131884230696 830412 884476 939030 987769 1025155 1047088 1051097 1036691 
3515.132063422402 1007499 970816 931548 888576 837965 777481 708921 639578 577735 
3503.565797796651 525815 480534 438807 400176 364853 333390 306723 284302 265449 
3491.9995321709002 250742 239704 229577 219185 210285 203533 197003 189483 180860 
3480.4332665451493 170373 158080 147299 140456 135044 125718 110199 91927 78186 
3468.867000919398 74719 81518 93904 107012 116801 119220 112555 99264 83689 
3457.300735293647 69004 56890 48928 46648 51613 63591 77864 86773 85964 78653 
3444.4493290428127 72188 70967 73466 76078 76993 75839 71825 65115 59244 58368 
3431.5979227919784 63028 69642 74182 74281 69424 61273 53676 51100 55786 66139 
3418.746516541144 78139 88205 93847 92643 83775 70142 57543 50354 49480 53173 
3405.8951102903093 58044 62033 67233 76428 86021 88306 80740 69170 60550 56499 
3393.043704039475 55322 56118 59389 65465 72989 79257 81946 81132 79488 80235 
3380.1922977886406 84820 91520 96324 96023 91115 85245 82361 83523 87349 92319 
3367.3408915378063 97943 104155 110193 115218 118283 117762 112246 103511 96529 
3355.7746259120554 95245 99292 104866 108265 107707 103498 97396 91800 88047 
3344.208360286304 85990 84434 83357 83541 85206 88360 94031 103607 115540 125541 
3331.35695403547 130150 128927 124293 119272 115677 113173 109988 105652 102396 
3319.7906884097188 103358 109015 116526 122125 124256 124155 123041 120941 118263 
3308.224422783968 117362 120409 126813 133538 137771 138233 135184 130747 128265 
3296.658157158217 130485 137057 144497 148889 148946 146647 144323 142479 140458 
3285.091891532466 138194 135823 132162 126466 121315 121237 127112 134964 140375 
3273.525625906715 142661 144024 145907 147619 147424 145037 142466 142819 146996 
3261.959360280964 152726 156326 156178 153928 152666 154103 157228 159644 159010 
3250.393094655213 154147 146214 138607 134868 135579 137978 139809 141362 143393 
3238.8268290294623 144884 144107 141289 139028 140248 145777 153689 159787 160366 
3227.2605634037113 155246 148447 144874 146019 149068 149985 146931 141284 136433 
3215.69429777796 134873 136280 138116 138207 137537 139134 144980 152359 155435 
3204.128032152209 150422 139685 129926 126149 128605 134566 141586 147294 148211 
3192.561766526458 141663 128779 115145 105878 102061 100437 97583 93276 90070 
3180.995500900707 89995 92495 95401 97105 96514 92267 84789 78370 79283 90070 
3168.144094649873 106145 119277 124017 120866 113321 103428 91852 80919 74600 
3156.577829024122 74537 77151 77224 73842 70980 72691 78707 84978 87320 84270 
3143.7264227732876 77823 72209 70861 73337 76034 76560 76228 76977 77696 76031 
3130.875016522453 72603 70630 71211 71659 68815 62113 52971 43284 35211 30434 
3118.023610271619 28792 29001 30462 33229 36296 38452 39621 40970 43264 45811 
3105.172204020784 46964 44888 39566 33410 29193 27320 26473 25818 25878 27289 
3092.32079776995 30113 33403 35063 32965 27494 21783 18660 17950 17564 16217 
3079.4693915191156 14436 13612 14710 17896 22601 27603 30758 29965 24829 17735 
3066.617985268281 12442 10847 11702 12414 11246 7745 2728 -1175 -1216 1972 3986 
3052.481438392363 1692 -2774 -4633 -1982 3000 7564 10889 13232 14382 14205 13923 
3038.3448915164454 15088 17686 19470 18160 13799 9483 9141 14545 23922 33273 
3025.493485265611 39460 41784 41481 40087 38794 38742 41193 46503 53228 58611 
3012.6420790147768 61268 62258 63599 65994 68390 69658 69411 67830 65390 62769 
2999.790672763942 60869 60221 60817 62277 63861 64584 64063 62888 61699 61056 
2986.9392665131077 62367 67718 77247 87515 94591 97840 99183 99980 100426 101077 
2974.0878602622734 103021 106132 108725 109436 108164 105413 101563 97201 92926 
2962.5215946365224 88822 84944 82359 82945 87206 93227 98164 99905 97951 93294 
2949.6701883856877 88288 85015 84159 85217 87577 90814 93865 95162 93945 91261 
2936.818782134854 89144 89216 91849 96293 100644 102741 102204 100906 100631 
2925.252516509103 100683 99653 97873 96540 95019 91152 84330 76731 71613 70936 
2912.401110258268 74169 78850 82610 85069 87523 91486 97331 103670 107917 108304 
2899.549704007434 106249 105605 109070 115285 120446 121775 118862 112215 102401 
2887.983438381683 90921 79379 67189 52124 34076 16937 5312 610 981 4561 10829 
2873.8468915057647 19698 29750 38214 42875 43554 42041 40359 39530 39786 40856 
2860.995485254931 42478 44329 45888 46153 44445 41201 37885 35488 33957 32682 
2848.144079004096 31341 29973 28564 26976 24969 22461 19791 17852 17709 19887 
2835.2926727532617 24075 28978 32763 34058 32809 30224 27561 25417 24106 24251 
2822.4412665024274 26134 28362 28623 26445 24080 23775 25196 26696 27657 28639 
2809.5898602515927 29675 30222 30317 30426 30276 29128 26694 23839 22073 22423 
2796.7384540007583 24518 26735 28074 28641 28413 26572 23202 20048 18483 17921 
2783.887047749924 17145 16425 17007 19372 23047 27126 30418 31675 30639 28512 
2771.0356414990897 27196 28160 31561 35975 38926 38701 35641 31620 28139 25518 
2758.1842352482554 23653 23119 24419 26264 26142 23083 19322 18279 21291 26945 
2745.3328289974206 32804 36913 38201 36885 34138 30957 27618 24544 22842 23425 
2732.4814227465863 26005 29227 31514 31916 30260 27421 25124 24647 25668 26450 
2719.630016495752 25756 24140 23155 23500 24432 24554 23466 22164 21868 23111 
2706.7786102449177 25751 29419 33517 37110 39271 39100 35908 30431 25525 23596 
2693.9272039940834 24044 24665 24932 25997 27981 29411 29657 29750 30755 32265 
2681.0757977432486 32903 32157 30742 29981 30429 31908 33838 35664 36970 37395 
2668.2243914924143 37014 36400 36214 36618 37164 37281 36605 35105 33102 31180 
2655.37298524158 29916 29341 29105 28996 29170 29678 30224 30294 29869 29836 
2642.5215789907456 31247 33967 36657 38418 39836 41885 44349 46306 47438 48065 
2629.6701727399113 48358 47778 45762 42924 40877 40408 39965 37473 33050 29351 
2616.8187664890766 28126 28232 27603 25927 24860 25805 28812 32986 37504 41642 
2603.9673602382422 44266 44207 41517 37986 35605 35239 36685 39201 41222 40968 
2591.115953987408 38372 35219 33076 31781 30418 28862 27623 27111 27217 27326 
2578.264547736573 26398 24163 22057 22265 25321 29556 33102 35724 38281 40849 
2565.4131414857393 42440 42302 40665 38107 35120 32584 31242 30833 30079 28209 
2552.5617352349045 26354 26460 29027 32053 33172 32211 30721 29900 29755 30123 
2539.71032898407 30817 31480 31830 32043 32346 32711 33309 34004 34094 32923 
2526.858922733236 31211 30501 31377 32918 33905 33967 33848 34302 35105 35625 
2514.007516482401 35846 36294 37040 37185 35781 32846 29716 28059 28496 30222 
2501.1561102315673 31913 32711 32708 32672 33151 34011 34851 35719 36701 37408 
2488.3047039807325 37835 38750 40434 41875 42020 41175 40615 41230 42994 45155 
2475.453297729898 46663 46705 45106 42582 40722 41160 44321 48863 52816 55008 
2462.601891479064 55542 55327 55387 56587 59710 65206 71973 77800 81498 83744 
2449.750485228229 85787 88277 91953 97671 105346 113531 120269 124386 126403 
2438.184219602478 128244 132177 139233 148809 159215 169326 180153 193997 211549 
2426.617953976727 231596 253259 277041 303126 330876 360692 394484 434043 478694 
2415.0516883509763 526418 575713 627509 684360 747998 818543 897035 982091 1073616 
2403.4854227252254 1172392 1280598 1401771 1545789 1746716 2102841 2836303 4352797 
2393.2042977245583 7230345 12136276 19731743 30633702 45453217 64806312 89668130 
2384.208313348974 121594941 164504134 241389393 600000000 600000000 600000000 
2376.4974695984733 600000000 600000000 600000000 600000000 600000000 600000000 
2368.7866258479726 600000000 600000000 600000000 600000000 600000000 600000000 
2361.0757820974723 600000000 600000000 600000000 600000000 600000000 235778927 
2353.364938346971 203297805 186933422 177386021 171866691 169286108 169232285 
2345.6540945964707 170536994 172849524 176054465 180090963 184891140 190294456 
2337.94325084597 196069908 201909184 208203649 214409232 220147514 224744844 
2330.232407095469 227216887 226868438 223644471 218052482 214341521 209928059 
2322.521563344969 205653715 202309489 200646781 201276230 205104255 214160561 
2314.810719594468 213222908 214005637 216707944 221617007 228625559 237857532 
2307.0998758439673 250939893 270237851 260993409 244816541 225785136 208646798 
2299.389032093467 194534528 181403362 166415119 149423885 133147883 119163393 
2291.678188342966 107017207 95013070 82380098 70408535 61149901 55794882 54176652 
2282.682203967382 54948139 56260812 56768000 56214201 54976552 53409808 51732498 
2273.686219591798 50140851 48812726 47810277 47033241 46242603 45167586 43648669 
2264.690235216214 41714808 39553514 37413290 35479468 33779311 32176089 30464905 
2255.69425084063 28496804 26243951 23793804 21311071 18990609 16980178 15303896 
2246.698266465046 13858018 12501999 11161691 9846958 8595109 7428544 6357032 
2237.7022820894617 5391084 4541591 3812373 3196106 2675721 2232204 1852182 1528399 
2227.421157088794 1256104 1030941 847606 698800 577268 478446 398974 334877 
2217.1400320881266 282585 240047 205580 177897 156477 140225 127104 115963 107053 
2205.5737664623757 100237 94770 90207 85458 79228 72263 67135 65019 64680 64501 
2192.722360211541 63783 62710 62085 62111 61618 59946 58049 56722 55612 54446 
2179.870953960707 53204 51398 49320 48591 49726 51289 52450 54189 57193 60566 
2167.0195477098723 62334 60781 56348 52142 50841 51828 52857 52862 51966 50960 
2154.168141459038 50856 51647 51813 51009 50582 50843 50812 50709 51595 53274 
2141.3167352082037 55182 57263 58518 58899 65515 89982 132814 173447 184536 
2129.7504695824528 159348 119628 92513 85199 87595 91209 95442 100712 106493 
2118.184203956702 113777 121790 126242 125484 123641 124448 127006 128114 125243 
2106.617938330951 118504 111478 106750 102012 98701 112246 161335 239735 305720 
2095.0516727052 313523 260600 193149 156732 156869 175095 197289 223980 309821 
2083.485407079449 597391 1192385 1923176 2336743 2113450 1438550 793525 471123 
2073.204282078781 426796 490680 567141 639757 706645 763784 810243 844143 863153 
2061.63801645303 868343 861464 843459 816177 780556 735607 682588 625090 564805 
2050.071750827279 502631 441814 385088 332496 285120 246680 219008 198657 179095 
2038.5054852015282 155381 128701 105613 90573 81311 73715 67290 63062 60830 
2026.9392195757773 60058 60503 61152 61102 60457 59073 56929 55345 55249 55296 
2014.087813324943 53938 51696 49633 47980 46909 46497 46041 45305 45147 45819 
2001.2364070741085 46098 45235 43689 42445 42450 43841 45381 45824 45663 46176 
1988.3850008232741 47394 48519 49172 49213 48768 48358 48441 48957 49773 50543 
1975.5335945724396 50514 49371 47959 47309 47583 48542 49936 51097 51688 52360 
1962.6821883216053 53832 55731 57105 57134 55470 52528 49260 46288 43815 42139 
1949.830782070771 41390 41077 40496 39556 39092 40209 43818 53572 79755 131824 
1936.9793758199366 198787 244043 235386 180231 119031 84532 78554 85935 96184 
1925.4131101941853 107699 121198 135839 149440 159779 165768 167683 166397 163217 
1913.8468445684343 159680 156558 153531 150084 145790 140248 133294 125347 116817 
1902.2805789426834 108034 99549 91720 84299 76975 69940 63303 57183 52305 49545 
1889.429172691849 48920 49802 51427 52753 52650 51009 48879 47236 46391 46285 
1876.5777664410148 46482 46098 44513 42118 40258 40089 41688 44064 46205 47687 
1863.7263601901805 48498 48648 48343 47801 46865 45373 43818 42953 42999 43295 
1850.8749539393457 42950 41364 38921 37162 37519 39512 41136 41336 41121 41989 
1838.0235476885114 43870 45052 44090 41553 39447 38994 39359 39193 38823 39786 
1825.172141437677 42683 46225 48685 49338 48537 47068 45295 42955 39970 37561 
1812.3207351868427 37496 39994 43116 44642 43968 41753 38890 36392 35524 36986 
1799.4693289360084 39685 41455 40942 39144 38315 39654 42142 44142 45254 46075 
1786.6179226851737 46694 46220 44134 41271 39188 38566 38563 37747 35773 34058 
1773.7665164343393 34343 36631 39380 41310 42041 41476 40237 39968 41761 44165 
1760.915110183505 44842 43707 42738 42906 43025 41737 39310 37232 36602 37470 
1748.0637039326707 38991 39991 39589 37996 36830 37778 40077 40996 39209 36693 
1735.2122976818364 36283 38364 41639 45352 48674 50211 49470 47661 45984 44272 
1722.3608914310016 42090 40092 39193 39395 40095 41113 42491 43826 44137 42738 
1709.5094851801673 40260 38348 37480 35817 31999 28561 30224 37626 46295 52150 
1696.658078929333 54912 55962 55871 55312 55890 58401 61123 61367 58544 55122 
1683.8066726784987 54093 55812 57650 56600 52658 48876 47560 47487 46661 45938 
1670.9552664276644 47879 52315 55693 55496 53220 52264 53966 56729 58272 57349 
1658.1038601768296 54205 50965 50882 54731 58795 59384 57074 55789 58391 63653 
1645.2524539259953 68125 69681 68195 64026 57471 50180 45759 46681 50859 53863 
1632.401047675161 53596 51631 50126 49084 47666 46611 47542 50247 52525 52751 
1619.5496414243266 51774 51471 52178 52305 50698 48120 46233 45640 45474 44997 
1606.6982351734923 44699 45606 47951 50820 52969 53725 53474 53236 53894 55480 
1593.8468289226576 57196 58158 58204 57953 58062 58660 59404 60226 61481 63446 
1580.9954226718232 65776 67739 68869 68825 66754 62007 55778 51315 50911 53513 
1568.144016420989 56678 59583 62020 62207 58012 50522 44422 42849 44647 47376 
1555.2926101701546 49885 52129 54342 56411 57437 56151 52388 47892 45461 47327 
1542.4412039193203 53549 60610 63337 59508 52085 46588 46189 48931 50556 49115 
1529.5897976684855 45824 42406 39048 35444 32408 30846 30180 29442 29004 29804 
1516.7383914176512 31335 31815 30115 26639 23145 22334 26442 34483 42092 45663 
1503.8869851668169 44953 42007 39022 37278 37043 37351 36504 33452 29237 26536 
1491.0355789159826 27504 31799 36947 40525 41732 41401 40704 39895 38527 36413 
1478.1841726651478 33967 31776 30540 31141 33796 37001 38538 37812 36410 36221 
1465.3327664143135 37017 36633 33535 28696 25448 26600 31519 36828 40097 41287 
1452.4813601634792 41494 41597 41857 42129 42131 42022 42367 42976 42287 39317 
1439.6299539126449 35820 34820 36706 38618 38392 36967 36532 37504 38519 38905 
1426.7785476618105 39312 39911 39478 37418 35550 36330 39771 43523 45645 45987 
1413.9271414109758 45440 44772 44132 43378 42722 42854 43924 44699 43888 41903 
1401.0757351601414 40263 39776 40102 40875 42118 43701 45155 46186 47078 48415 
1388.2243289093071 50341 52137 52948 52813 52523 52432 51823 49926 47306 45443 
1375.3729226584728 45155 45759 46140 46047 46197 46995 47969 48340 48052 47863 
1362.5215164076385 48449 49758 51121 52064 52725 53388 53775 53381 52284 51240 
1349.6701101568037 50633 50110 49042 47195 44844 42727 41722 42116 43479 45261 
1336.8187039059694 47138 48752 49680 49840 49498 48677 47192 45386 44075 43808 
1323.967297655135 44445 45456 46285 46573 46316 45930 45787 45904 46189 46604 
1311.1158914043008 46972 46951 46389 45717 45528 45909 46316 46163 45464 44829 
1298.2644851534665 44772 45238 45852 46352 46666 46596 46150 45964 46917 49151 
1285.4130789026317 51623 53129 53376 52868 52108 51530 51769 53215 55327 56864 
1272.5616726517974 56942 55700 53860 52124 50924 50297 49755 48812 47594 46873 
1259.710266400963 47316 48674 50151 51152 51797 52533 53508 54293 54233 53207 
1246.8588601501287 52036 51735 52372 52984 52722 51668 50460 49467 48532 47415 
1234.0074538992944 46194 45375 45526 46705 48431 50027 51059 51341 50859 49641 
1221.1560476484597 47912 46241 45313 45308 45733 46044 46218 46345 46228 45717 
1208.3046413976253 45308 45648 46635 47555 47850 47428 46516 45616 45375 45868 
1195.453235146791 46378 46301 45961 45933 45909 45137 43792 43186 44189 46109 
1182.6018288959567 47575 48076 48047 47791 46946 45344 43865 43699 44870 46140 
1169.7504226451224 46399 45660 44575 43595 43059 43181 43562 43339 42408 41818 
1156.8990163942876 42486 43906 44759 44443 43536 42782 42123 41201 40209 39887 
1144.0476101434533 40463 41411 42219 42960 43872 44761 45147 44917 44507 44500 
1131.196203892619 44979 45155 44103 41818 39250 37421 36856 37809 40162 42999 
1118.3447976417847 44868 44940 43727 42722 42940 44137 45295 45946 46510 47428 
1105.4933913909504 48415 48910 48998 49579 51802 56289 62860 70837 79664 89497 
1092.6419851401156 100961 114569 130126 146759 163495 179844 195562 209799 220912 
1081.0757195143647 227446 229098 226371 219853 209858 196582 180114 160683 139329 
1069.5094538886137 118390 101015 90181 87733 93733 106379 122527 138750 152500 
1057.9431882628628 162770 169812 174089 175646 174453 170864 165662 159813 154077 
1046.3769226371119 148609 142700 135675 127901 120497 113790 106952 99370 91668 
1034.810657011361 84921 79423 74843 70918 67532 64304 61017 57929 55304 52847 
1021.9592507605266 50253 48045 47036 47125 47410 47485 47661 48008 48070 47879 
1009.1078445096919 48091 48874 49467 49345 48928 48480 47358 45178 43152 43043 
996.2564382588575 45204 48537 52367 57276 63951 72043 80683 89598 99085 109184 
983.4050320080232 119410 129171 137965 145211 150377 153297 154066 152383 147601 
971.8387663822723 139295 127883 114512 100434 86508 73715 64200 60830 65058 
960.2725007565214 75432 88680 101892 113463 122691 129384 133548 134969 133733 
948.7062351307704 130913 128221 126479 124939 122252 117743 111652 104710 97725 
937.1399695050195 91248 85297 79547 74006 69053 65045 61901 59319 57035 55211 
924.2885632541852 54490 55444 57686 59951 61198 61048 59508 56947 54381 52678 
911.4371570033504 51543 50242 49244 49965 52538 54923 54967 52829 50722 50405 
898.5857507525161 51460 52049 50875 48226 45544 43963 43455 43134 42525 42009 
885.7343445016818 41872 41991 42372 43271 44471 45210 45036 44406 44152 44551 
872.8829382508475 45036 44966 44684 45010 45730 45648 44313 42631 41727 42206 
860.0315320000127 44129 46733 48495 48511 47252 46083 46028 47011 47692 46967 
847.1801257491784 45344 43872 42225 39507 36265 34048 33698 35068 37444 40203 
834.3287194983441 43595 47840 51183 50535 45528 39678 36587 37263 40900 46181 
821.4773132475098 51629 56491 60962 65120 68519 70936 72528 73594 74133 72777 
808.6259069966754 68247 62660 60599 63202 66318 64789 58241 60960 106075 216149 
795.7745007458407 353434 424788 368818 224979 89810 20509 5299 8271 10485 11430 
782.9230944950064 15816 25847 38768 49859 58391 68530 84366 106444 133333 166335 
770.071688244172 211809 275871 358069 455537 573808 728659 934504 1189293 1472051 
758.5054226184211 1763621 2071900 2423334 2830879 3288274 3784280 4306203 4885226 
748.2242976177536 5691816 6972657 8708830 10347779 11148304 10955078 10354159 
739.2283132421694 9963618 9896938 9926137 9859310 9634764 9236583 8677510 7984542 
728.9471882415019 7277551 7192094 9144289 14573496 23088504 30313146 30298849 
719.9512038659177 24346923 18728542 16492675 17232909 19494891 22306530 25370094 
710.9552194903335 28661274 32318276 36574542 41500362 46926429 52594387 58267807 
701.9592351147498 63880521 0 
##END
##END=
